10.0001	1209.0000
10.0206	1293.0000
10.0411	1278.0000
10.0615	1182.0000
10.0820	1224.0000
10.1025	1152.0000
10.1230	1228.0000
10.1434	1151.0000
10.1639	1286.0000
10.1844	1269.0000
10.2049	1158.0000
10.2253	1252.0000
10.2458	1209.0000
10.2663	1240.0000
10.2868	1279.0000
10.3072	1191.0000
10.3277	1253.0000
10.3482	1210.0000
10.3687	1259.0000
10.3891	1226.0000
10.4096	1186.0000
10.4301	1175.0000
10.4506	1231.0000
10.4710	1209.0000
10.4915	1157.0000
10.5120	1195.0000
10.5325	1280.0000
10.5529	1227.0000
10.5734	1242.0000
10.5939	1222.0000
10.6144	1240.0000
10.6348	1236.0000
10.6553	1281.0000
10.6758	1236.0000
10.6963	1250.0000
10.7167	1244.0000
10.7372	1242.0000
10.7577	1201.0000
10.7782	1349.0000
10.7987	1215.0000
10.8191	1226.0000
10.8396	1253.0000
10.8601	1227.0000
10.8806	1264.0000
10.9010	1183.0000
10.9215	1230.0000
10.9420	1178.0000
10.9625	1239.0000
10.9829	1223.0000
11.0034	1295.0000
11.0239	1213.0000
11.0444	1219.0000
11.0648	1194.0000
11.0853	1310.0000
11.1058	1240.0000
11.1263	1285.0000
11.1467	1260.0000
11.1672	1232.0000
11.1877	1204.0000
11.2082	1276.0000
11.2286	1207.0000
11.2491	1231.0000
11.2696	1193.0000
11.2901	1201.0000
11.3105	1235.0000
11.3310	1231.0000
11.3515	1224.0000
11.3720	1263.0000
11.3924	1239.0000
11.4129	1280.0000
11.4334	1236.0000
11.4539	1253.0000
11.4743	1281.0000
11.4948	1244.0000
11.5153	1245.0000
11.5358	1221.0000
11.5562	1195.0000
11.5767	1275.0000
11.5972	1255.0000
11.6177	1239.0000
11.6382	1290.0000
11.6586	1225.0000
11.6791	1241.0000
11.6996	1210.0000
11.7201	1232.0000
11.7405	1223.0000
11.7610	1262.0000
11.7815	1255.0000
11.8020	1199.0000
11.8224	1274.0000
11.8429	1284.0000
11.8634	1217.0000
11.8839	1258.0000
11.9043	1226.0000
11.9248	1249.0000
11.9453	1218.0000
11.9658	1213.0000
11.9862	1250.0000
12.0067	1240.0000
12.0272	1175.0000
12.0477	1258.0000
12.0681	1210.0000
12.0886	1211.0000
12.1091	1198.0000
12.1296	1168.0000
12.1500	1204.0000
12.1705	1231.0000
12.1910	1278.0000
12.2115	1236.0000
12.2319	1240.0000
12.2524	1290.0000
12.2729	1236.0000
12.2934	1249.0000
12.3138	1158.0000
12.3343	1296.0000
12.3548	1256.0000
12.3753	1238.0000
12.3958	1249.0000
12.4162	1263.0000
12.4367	1237.0000
12.4572	1192.0000
12.4777	1248.0000
12.4981	1254.0000
12.5186	1224.0000
12.5391	1223.0000
12.5596	1266.0000
12.5800	1247.0000
12.6005	1248.0000
12.6210	1207.0000
12.6415	1165.0000
12.6619	1220.0000
12.6824	1244.0000
12.7029	1212.0000
12.7234	1234.0000
12.7438	1197.0000
12.7643	1165.0000
12.7848	1149.0000
12.8053	1182.0000
12.8257	1254.0000
12.8462	1287.0000
12.8667	1190.0000
12.8872	1182.0000
12.9076	1153.0000
12.9281	1157.0000
12.9486	1286.0000
12.9691	1223.0000
12.9895	1192.0000
13.0100	1167.0000
13.0305	1241.0000
13.0510	1167.0000
13.0714	1194.0000
13.0919	1196.0000
13.1124	1188.0000
13.1329	1234.0000
13.1533	1196.0000
13.1738	1205.0000
13.1943	1238.0000
13.2148	1245.0000
13.2353	1192.0000
13.2557	1123.0000
13.2762	1210.0000
13.2967	1200.0000
13.3172	1166.0000
13.3376	1123.0000
13.3581	1190.0000
13.3786	1223.0000
13.3991	1243.0000
13.4195	1192.0000
13.4400	1202.0000
13.4605	1158.0000
13.4810	1190.0000
13.5014	1155.0000
13.5219	1172.0000
13.5424	1129.0000
13.5629	1183.0000
13.5833	1190.0000
13.6038	1172.0000
13.6243	1212.0000
13.6448	1197.0000
13.6652	1146.0000
13.6857	1196.0000
13.7062	1115.0000
13.7267	1225.0000
13.7471	1139.0000
13.7676	1157.0000
13.7881	1201.0000
13.8086	1175.0000
13.8290	1173.0000
13.8495	1175.0000
13.8700	1164.0000
13.8905	1189.0000
13.9109	1165.0000
13.9314	1218.0000
13.9519	1189.0000
13.9724	1162.0000
13.9929	1137.0000
14.0133	1178.0000
14.0338	1133.0000
14.0543	1157.0000
14.0748	1188.0000
14.0952	1154.0000
14.1157	1147.0000
14.1362	1150.0000
14.1567	1218.0000
14.1771	1161.0000
14.1976	1189.0000
14.2181	1193.0000
14.2386	1202.0000
14.2590	1164.0000
14.2795	1153.0000
14.3000	1171.0000
14.3205	1175.0000
14.3409	1124.0000
14.3614	1102.0000
14.3819	1114.0000
14.4024	1164.0000
14.4228	1120.0000
14.4433	1152.0000
14.4638	1135.0000
14.4843	1126.0000
14.5047	1108.0000
14.5252	1210.0000
14.5457	1183.0000
14.5662	1221.0000
14.5866	1050.0000
14.6071	1154.0000
14.6276	1145.0000
14.6481	1164.0000
14.6685	1144.0000
14.6890	1153.0000
14.7095	1157.0000
14.7300	1175.0000
14.7505	1150.0000
14.7709	1145.0000
14.7914	1120.0000
14.8119	1167.0000
14.8324	1133.0000
14.8528	1170.0000
14.8733	1190.0000
14.8938	1189.0000
14.9143	1125.0000
14.9347	1076.0000
14.9552	1086.0000
14.9757	1108.0000
14.9962	1128.0000
15.0166	1177.0000
15.0371	1107.0000
15.0576	1099.0000
15.0781	1156.0000
15.0985	1093.0000
15.1190	1084.0000
15.1395	1126.0000
15.1600	1095.0000
15.1804	1085.0000
15.2009	1084.0000
15.2214	1120.0000
15.2419	1062.0000
15.2623	1084.0000
15.2828	1149.0000
15.3033	1130.0000
15.3238	1063.0000
15.3442	1141.0000
15.3647	1111.0000
15.3852	1178.0000
15.4057	1124.0000
15.4261	1084.0000
15.4466	1154.0000
15.4671	1056.0000
15.4876	1150.0000
15.5080	1123.0000
15.5285	1117.0000
15.5490	1149.0000
15.5695	1090.0000
15.5900	1099.0000
15.6104	1070.0000
15.6309	1134.0000
15.6514	1116.0000
15.6719	1112.0000
15.6923	1157.0000
15.7128	1125.0000
15.7333	1118.0000
15.7538	1104.0000
15.7742	1109.0000
15.7947	1150.0000
15.8152	1204.0000
15.8357	1152.0000
15.8561	1127.0000
15.8766	1109.0000
15.8971	1108.0000
15.9176	1120.0000
15.9380	1096.0000
15.9585	1146.0000
15.9790	1073.0000
15.9995	1137.0000
16.0199	1154.0000
16.0404	1115.0000
16.0609	1107.0000
16.0814	1182.0000
16.1018	1098.0000
16.1223	1169.0000
16.1428	1062.0000
16.1633	1165.0000
16.1837	1076.0000
16.2042	1071.0000
16.2247	1089.0000
16.2452	1122.0000
16.2656	1095.0000
16.2861	1084.0000
16.3066	1130.0000
16.3271	1119.0000
16.3476	1100.0000
16.3680	1084.0000
16.3885	1141.0000
16.4090	1091.0000
16.4295	1101.0000
16.4499	1134.0000
16.4704	1136.0000
16.4909	1112.0000
16.5114	1098.0000
16.5318	1148.0000
16.5523	1115.0000
16.5728	1058.0000
16.5933	1109.0000
16.6137	1097.0000
16.6342	1081.0000
16.6547	1111.0000
16.6752	1140.0000
16.6956	1062.0000
16.7161	1073.0000
16.7366	1047.0000
16.7571	1059.0000
16.7775	1099.0000
16.7980	1057.0000
16.8185	1110.0000
16.8390	1120.0000
16.8594	1038.0000
16.8799	1120.0000
16.9004	1039.0000
16.9209	1123.0000
16.9413	1132.0000
16.9618	1101.0000
16.9823	1119.0000
17.0028	1140.0000
17.0232	1040.0000
17.0437	1108.0000
17.0642	1140.0000
17.0847	1105.0000
17.1051	1114.0000
17.1256	1068.0000
17.1461	1099.0000
17.1666	1063.0000
17.1871	1096.0000
17.2075	1122.0000
17.2280	1138.0000
17.2485	1138.0000
17.2690	1117.0000
17.2894	1123.0000
17.3099	1062.0000
17.3304	1030.0000
17.3509	1086.0000
17.3713	1065.0000
17.3918	1061.0000
17.4123	1063.0000
17.4328	1134.0000
17.4532	1117.0000
17.4737	1076.0000
17.4942	1084.0000
17.5147	1100.0000
17.5351	1076.0000
17.5556	1101.0000
17.5761	1145.0000
17.5966	1062.0000
17.6170	1132.0000
17.6375	1119.0000
17.6580	1110.0000
17.6785	1120.0000
17.6989	1139.0000
17.7194	1082.0000
17.7399	1064.0000
17.7604	1129.0000
17.7808	1118.0000
17.8013	1138.0000
17.8218	1112.0000
17.8423	1052.0000
17.8627	1124.0000
17.8832	1140.0000
17.9037	1121.0000
17.9242	1082.0000
17.9447	1164.0000
17.9651	1169.0000
17.9856	1135.0000
18.0061	1129.0000
18.0266	1179.0000
18.0470	1197.0000
18.0675	1160.0000
18.0880	1177.0000
18.1085	1233.0000
18.1289	1208.0000
18.1494	1251.0000
18.1699	1264.0000
18.1904	1376.0000
18.2108	1389.0000
18.2313	1442.0000
18.2518	1446.0000
18.2723	1560.0000
18.2927	1737.0000
18.3132	1911.0000
18.3337	2046.0000
18.3542	2115.0000
18.3746	2364.0000
18.3951	2449.0000
18.4156	2589.0000
18.4361	2520.0000
18.4565	2344.0000
18.4770	2202.0000
18.4975	2029.0000
18.5180	1981.0000
18.5384	1845.0000
18.5589	1735.0000
18.5794	1668.0000
18.5999	1617.0000
18.6203	1464.0000
18.6408	1425.0000
18.6613	1333.0000
18.6818	1300.0000
18.7023	1238.0000
18.7227	1303.0000
18.7432	1265.0000
18.7637	1169.0000
18.7842	1172.0000
18.8046	1149.0000
18.8251	1180.0000
18.8456	1112.0000
18.8661	1170.0000
18.8865	1175.0000
18.9070	1059.0000
18.9275	1085.0000
18.9480	1125.0000
18.9684	1132.0000
18.9889	1122.0000
19.0094	1159.0000
19.0299	1137.0000
19.0503	1093.0000
19.0708	1125.0000
19.0913	1116.0000
19.1118	1102.0000
19.1322	1103.0000
19.1527	1066.0000
19.1732	1047.0000
19.1937	1093.0000
19.2141	1105.0000
19.2346	1116.0000
19.2551	1096.0000
19.2756	1077.0000
19.2960	1120.0000
19.3165	1139.0000
19.3370	1167.0000
19.3575	1094.0000
19.3779	1123.0000
19.3984	1088.0000
19.4189	1039.0000
19.4394	980.0000
19.4598	1084.0000
19.4803	1062.0000
19.5008	1108.0000
19.5213	1098.0000
19.5418	1128.0000
19.5622	1055.0000
19.5827	1079.0000
19.6032	1109.0000
19.6237	1092.0000
19.6441	1078.0000
19.6646	1106.0000
19.6851	1065.0000
19.7056	1142.0000
19.7260	1082.0000
19.7465	1126.0000
19.7670	1066.0000
19.7875	1082.0000
19.8079	1071.0000
19.8284	1081.0000
19.8489	1106.0000
19.8694	1090.0000
19.8898	1103.0000
19.9103	1098.0000
19.9308	1009.0000
19.9513	1024.0000
19.9717	1075.0000
19.9922	1026.0000
20.0127	1140.0000
20.0332	1067.0000
20.0536	1072.0000
20.0741	1127.0000
20.0946	1102.0000
20.1151	1029.0000
20.1355	1135.0000
20.1560	1113.0000
20.1765	1079.0000
20.1970	1078.0000
20.2174	1069.0000
20.2379	1082.0000
20.2584	1048.0000
20.2789	1080.0000
20.2994	1087.0000
20.3198	1063.0000
20.3403	1032.0000
20.3608	1102.0000
20.3813	1031.0000
20.4017	1064.0000
20.4222	1070.0000
20.4427	1084.0000
20.4632	1049.0000
20.4836	1047.0000
20.5041	1038.0000
20.5246	1036.0000
20.5451	1067.0000
20.5655	1098.0000
20.5860	1054.0000
20.6065	1059.0000
20.6270	1057.0000
20.6474	1049.0000
20.6679	1075.0000
20.6884	1021.0000
20.7089	1076.0000
20.7293	1055.0000
20.7498	1068.0000
20.7703	1060.0000
20.7908	1053.0000
20.8112	1055.0000
20.8317	1088.0000
20.8522	1029.0000
20.8727	1069.0000
20.8931	1025.0000
20.9136	1050.0000
20.9341	999.0000
20.9546	1136.0000
20.9750	1085.0000
20.9955	1103.0000
21.0160	1039.0000
21.0365	1018.0000
21.0569	1055.0000
21.0774	1077.0000
21.0979	991.0000
21.1184	1041.0000
21.1389	1108.0000
21.1593	1081.0000
21.1798	1078.0000
21.2003	1103.0000
21.2208	1043.0000
21.2412	1009.0000
21.2617	1102.0000
21.2822	1033.0000
21.3027	1090.0000
21.3231	1052.0000
21.3436	1122.0000
21.3641	1043.0000
21.3846	1100.0000
21.4050	1131.0000
21.4255	1064.0000
21.4460	1041.0000
21.4665	1111.0000
21.4869	1061.0000
21.5074	1029.0000
21.5279	1092.0000
21.5484	1032.0000
21.5688	1042.0000
21.5893	1105.0000
21.6098	1070.0000
21.6303	990.0000
21.6507	1055.0000
21.6712	990.0000
21.6917	1043.0000
21.7122	1060.0000
21.7326	1089.0000
21.7531	1053.0000
21.7736	1080.0000
21.7941	1002.0000
21.8145	1110.0000
21.8350	1061.0000
21.8555	1052.0000
21.8760	1016.0000
21.8965	1072.0000
21.9169	1049.0000
21.9374	1048.0000
21.9579	1040.0000
21.9784	1022.0000
21.9988	1064.0000
22.0193	1056.0000
22.0398	1046.0000
22.0603	1036.0000
22.0807	989.0000
22.1012	1066.0000
22.1217	1010.0000
22.1422	1078.0000
22.1626	1013.0000
22.1831	1095.0000
22.2036	1074.0000
22.2241	1005.0000
22.2445	1017.0000
22.2650	1015.0000
22.2855	1052.0000
22.3060	1136.0000
22.3264	1005.0000
22.3469	1068.0000
22.3674	1041.0000
22.3879	1052.0000
22.4083	1052.0000
22.4288	1024.0000
22.4493	988.0000
22.4698	1090.0000
22.4902	1015.0000
22.5107	1054.0000
22.5312	1079.0000
22.5517	1120.0000
22.5721	997.0000
22.5926	1015.0000
22.6131	1049.0000
22.6336	1024.0000
22.6540	1127.0000
22.6745	1024.0000
22.6950	1023.0000
22.7155	1054.0000
22.7360	1054.0000
22.7564	1005.0000
22.7769	1131.0000
22.7974	1046.0000
22.8179	1076.0000
22.8383	1075.0000
22.8588	1111.0000
22.8793	1109.0000
22.8998	1060.0000
22.9202	972.0000
22.9407	1103.0000
22.9612	1085.0000
22.9817	1102.0000
23.0021	1060.0000
23.0226	1087.0000
23.0431	1104.0000
23.0636	1045.0000
23.0840	975.0000
23.1045	1046.0000
23.1250	1002.0000
23.1455	1081.0000
23.1659	1076.0000
23.1864	1061.0000
23.2069	1116.0000
23.2274	1059.0000
23.2478	1060.0000
23.2683	1059.0000
23.2888	1030.0000
23.3093	1047.0000
23.3297	1040.0000
23.3502	958.0000
23.3707	1031.0000
23.3912	996.0000
23.4116	1028.0000
23.4321	999.0000
23.4526	1042.0000
23.4731	1045.0000
23.4936	1057.0000
23.5140	1073.0000
23.5345	1013.0000
23.5550	997.0000
23.5755	1059.0000
23.5959	1063.0000
23.6164	1019.0000
23.6369	1039.0000
23.6574	1078.0000
23.6778	1051.0000
23.6983	1085.0000
23.7188	1054.0000
23.7393	1021.0000
23.7597	998.0000
23.7802	1027.0000
23.8007	1004.0000
23.8212	993.0000
23.8416	1037.0000
23.8621	1092.0000
23.8826	1037.0000
23.9031	1056.0000
23.9235	1022.0000
23.9440	1011.0000
23.9645	1039.0000
23.9850	1011.0000
24.0054	1102.0000
24.0259	1014.0000
24.0464	1072.0000
24.0669	999.0000
24.0873	989.0000
24.1078	1005.0000
24.1283	1063.0000
24.1488	1023.0000
24.1692	1016.0000
24.1897	1062.0000
24.2102	1051.0000
24.2307	1078.0000
24.2512	1008.0000
24.2716	1045.0000
24.2921	1052.0000
24.3126	1037.0000
24.3331	1088.0000
24.3535	1010.0000
24.3740	1053.0000
24.3945	1055.0000
24.4150	1126.0000
24.4354	1066.0000
24.4559	1022.0000
24.4764	973.0000
24.4969	1062.0000
24.5173	1061.0000
24.5378	1006.0000
24.5583	1072.0000
24.5788	1074.0000
24.5992	1030.0000
24.6197	1065.0000
24.6402	1038.0000
24.6607	1152.0000
24.6811	995.0000
24.7016	1023.0000
24.7221	944.0000
24.7426	1070.0000
24.7630	1013.0000
24.7835	1093.0000
24.8040	1083.0000
24.8245	983.0000
24.8449	1068.0000
24.8654	1029.0000
24.8859	985.0000
24.9064	1066.0000
24.9268	1037.0000
24.9473	1017.0000
24.9678	1009.0000
24.9883	1093.0000
25.0087	1028.0000
25.0292	1024.0000
25.0497	975.0000
25.0702	1062.0000
25.0907	1019.0000
25.1111	1023.0000
25.1316	1026.0000
25.1521	1022.0000
25.1726	1011.0000
25.1930	1110.0000
25.2135	1067.0000
25.2340	986.0000
25.2545	1023.0000
25.2749	1064.0000
25.2954	1017.0000
25.3159	1010.0000
25.3364	1024.0000
25.3568	1085.0000
25.3773	1109.0000
25.3978	1014.0000
25.4183	1127.0000
25.4387	989.0000
25.4592	1036.0000
25.4797	1031.0000
25.5002	1054.0000
25.5206	983.0000
25.5411	1093.0000
25.5616	1103.0000
25.5821	1060.0000
25.6025	991.0000
25.6230	1060.0000
25.6435	1051.0000
25.6640	1046.0000
25.6844	1028.0000
25.7049	1015.0000
25.7254	1064.0000
25.7459	1048.0000
25.7663	1124.0000
25.7868	1060.0000
25.8073	1062.0000
25.8278	1044.0000
25.8483	1050.0000
25.8687	1106.0000
25.8892	990.0000
25.9097	1081.0000
25.9302	1007.0000
25.9506	1026.0000
25.9711	1012.0000
25.9916	1047.0000
26.0121	1096.0000
26.0325	1002.0000
26.0530	999.0000
26.0735	1045.0000
26.0940	1077.0000
26.1144	1060.0000
26.1349	1032.0000
26.1554	1036.0000
26.1759	1016.0000
26.1963	1042.0000
26.2168	1055.0000
26.2373	1029.0000
26.2578	1058.0000
26.2782	1070.0000
26.2987	1043.0000
26.3192	1077.0000
26.3397	1006.0000
26.3601	1024.0000
26.3806	1060.0000
26.4011	1068.0000
26.4216	1032.0000
26.4420	998.0000
26.4625	988.0000
26.4830	1010.0000
26.5035	1009.0000
26.5239	1063.0000
26.5444	1048.0000
26.5649	1055.0000
26.5854	1008.0000
26.6058	992.0000
26.6263	1000.0000
26.6468	1046.0000
26.6673	1035.0000
26.6878	1047.0000
26.7082	1045.0000
26.7287	1054.0000
26.7492	1043.0000
26.7697	1143.0000
26.7901	1011.0000
26.8106	1035.0000
26.8311	1004.0000
26.8516	1028.0000
26.8720	1061.0000
26.8925	996.0000
26.9130	1104.0000
26.9335	1026.0000
26.9539	990.0000
26.9744	1031.0000
26.9949	968.0000
27.0154	1059.0000
27.0358	1028.0000
27.0563	1025.0000
27.0768	1040.0000
27.0973	1009.0000
27.1177	982.0000
27.1382	1079.0000
27.1587	1010.0000
27.1792	1043.0000
27.1996	1051.0000
27.2201	1039.0000
27.2406	1058.0000
27.2611	1063.0000
27.2815	1092.0000
27.3020	1066.0000
27.3225	1041.0000
27.3430	989.0000
27.3634	997.0000
27.3839	1024.0000
27.4044	1052.0000
27.4249	1061.0000
27.4454	1012.0000
27.4658	1064.0000
27.4863	1056.0000
27.5068	963.0000
27.5273	994.0000
27.5477	1039.0000
27.5682	1036.0000
27.5887	1031.0000
27.6092	1068.0000
27.6296	1037.0000
27.6501	1001.0000
27.6706	1056.0000
27.6911	1028.0000
27.7115	1027.0000
27.7320	1089.0000
27.7525	1000.0000
27.7730	970.0000
27.7934	1036.0000
27.8139	1062.0000
27.8344	1020.0000
27.8549	1018.0000
27.8753	1040.0000
27.8958	1086.0000
27.9163	1074.0000
27.9368	1011.0000
27.9572	1034.0000
27.9777	1043.0000
27.9982	990.0000
28.0187	1041.0000
28.0391	1062.0000
28.0596	1042.0000
28.0801	1042.0000
28.1006	1085.0000
28.1210	1036.0000
28.1415	1094.0000
28.1620	964.0000
28.1825	980.0000
28.2030	940.0000
28.2234	1044.0000
28.2439	1033.0000
28.2644	1059.0000
28.2849	1089.0000
28.3053	1029.0000
28.3258	987.0000
28.3463	1085.0000
28.3668	1029.0000
28.3872	1022.0000
28.4077	1022.0000
28.4282	995.0000
28.4487	1054.0000
28.4691	1064.0000
28.4896	1029.0000
28.5101	998.0000
28.5306	994.0000
28.5510	1034.0000
28.5715	1107.0000
28.5920	1027.0000
28.6125	1031.0000
28.6329	1051.0000
28.6534	1112.0000
28.6739	974.0000
28.6944	1026.0000
28.7148	1068.0000
28.7353	1076.0000
28.7558	1006.0000
28.7763	1032.0000
28.7967	1008.0000
28.8172	1018.0000
28.8377	1080.0000
28.8582	1014.0000
28.8786	1080.0000
28.8991	1020.0000
28.9196	1062.0000
28.9401	1017.0000
28.9605	1090.0000
28.9810	1066.0000
29.0015	1044.0000
29.0220	992.0000
29.0425	1029.0000
29.0629	1078.0000
29.0834	1017.0000
29.1039	995.0000
29.1244	999.0000
29.1448	1038.0000
29.1653	1097.0000
29.1858	1081.0000
29.2063	1103.0000
29.2267	1022.0000
29.2472	1069.0000
29.2677	1118.0000
29.2882	1108.0000
29.3086	1114.0000
29.3291	1030.0000
29.3496	1112.0000
29.3701	1021.0000
29.3905	1135.0000
29.4110	1068.0000
29.4315	1116.0000
29.4520	1131.0000
29.4724	1115.0000
29.4929	1121.0000
29.5134	1105.0000
29.5339	1112.0000
29.5543	1112.0000
29.5748	1138.0000
29.5953	1091.0000
29.6158	1116.0000
29.6362	1111.0000
29.6567	1169.0000
29.6772	1126.0000
29.6977	1113.0000
29.7181	1109.0000
29.7386	1168.0000
29.7591	1151.0000
29.7796	1206.0000
29.8001	1182.0000
29.8205	1223.0000
29.8410	1219.0000
29.8615	1275.0000
29.8820	1227.0000
29.9024	1216.0000
29.9229	1265.0000
29.9434	1327.0000
29.9639	1376.0000
29.9843	1395.0000
30.0048	1403.0000
30.0253	1491.0000
30.0458	1611.0000
30.0662	1730.0000
30.0867	1805.0000
30.1072	1949.0000
30.1277	2156.0000
30.1481	2383.0000
30.1686	2664.0000
30.1891	2879.0000
30.2096	3286.0000
30.2300	3761.0000
30.2505	3911.0000
30.2710	4138.0000
30.2915	4449.0000
30.3119	4484.0000
30.3324	4429.0000
30.3529	4131.0000
30.3734	3997.0000
30.3938	3829.0000
30.4143	3454.0000
30.4348	3276.0000
30.4553	3041.0000
30.4757	2739.0000
30.4962	2539.0000
30.5167	2308.0000
30.5372	2082.0000
30.5576	1975.0000
30.5781	1849.0000
30.5986	1723.0000
30.6191	1675.0000
30.6396	1561.0000
30.6600	1479.0000
30.6805	1492.0000
30.7010	1292.0000
30.7215	1404.0000
30.7419	1316.0000
30.7624	1179.0000
30.7829	1270.0000
30.8034	1219.0000
30.8238	1153.0000
30.8443	1188.0000
30.8648	1246.0000
30.8853	1212.0000
30.9057	1134.0000
30.9262	1132.0000
30.9467	1131.0000
30.9672	1161.0000
30.9876	1080.0000
31.0081	1086.0000
31.0286	1115.0000
31.0491	1162.0000
31.0695	1139.0000
31.0900	1044.0000
31.1105	1110.0000
31.1310	1053.0000
31.1514	1094.0000
31.1719	1110.0000
31.1924	1126.0000
31.2129	1042.0000
31.2333	1040.0000
31.2538	1084.0000
31.2743	1141.0000
31.2948	1099.0000
31.3152	1132.0000
31.3357	1098.0000
31.3562	1091.0000
31.3767	1100.0000
31.3972	1100.0000
31.4176	1073.0000
31.4381	1100.0000
31.4586	1038.0000
31.4791	1054.0000
31.4995	1048.0000
31.5200	1080.0000
31.5405	1022.0000
31.5610	1024.0000
31.5814	1015.0000
31.6019	991.0000
31.6224	1075.0000
31.6429	1048.0000
31.6633	1128.0000
31.6838	1055.0000
31.7043	1015.0000
31.7248	1073.0000
31.7452	1057.0000
31.7657	1050.0000
31.7862	1072.0000
31.8067	1047.0000
31.8271	1021.0000
31.8476	1050.0000
31.8681	1066.0000
31.8886	1070.0000
31.9090	1044.0000
31.9295	1084.0000
31.9500	1040.0000
31.9705	1045.0000
31.9909	1036.0000
32.0114	1021.0000
32.0319	1019.0000
32.0524	1117.0000
32.0728	1093.0000
32.0933	1103.0000
32.1138	1054.0000
32.1343	1107.0000
32.1548	1033.0000
32.1752	1065.0000
32.1957	1164.0000
32.2162	1052.0000
32.2367	1018.0000
32.2571	1091.0000
32.2776	1053.0000
32.2981	1054.0000
32.3186	1005.0000
32.3390	995.0000
32.3595	1000.0000
32.3800	991.0000
32.4005	1029.0000
32.4209	1026.0000
32.4414	1022.0000
32.4619	1045.0000
32.4824	1009.0000
32.5028	1057.0000
32.5233	1055.0000
32.5438	1065.0000
32.5643	1035.0000
32.5847	967.0000
32.6052	1001.0000
32.6257	1060.0000
32.6462	1080.0000
32.6666	1014.0000
32.6871	1066.0000
32.7076	1012.0000
32.7281	1051.0000
32.7485	1072.0000
32.7690	1061.0000
32.7895	1036.0000
32.8100	1003.0000
32.8304	1100.0000
32.8509	1011.0000
32.8714	1051.0000
32.8919	1050.0000
32.9123	1102.0000
32.9328	1086.0000
32.9533	1004.0000
32.9738	1031.0000
32.9943	1074.0000
33.0147	1143.0000
33.0352	990.0000
33.0557	1021.0000
33.0762	1009.0000
33.0966	1044.0000
33.1171	1074.0000
33.1376	1007.0000
33.1581	1053.0000
33.1785	999.0000
33.1990	974.0000
33.2195	952.0000
33.2400	1019.0000
33.2604	1024.0000
33.2809	1026.0000
33.3014	1055.0000
33.3219	1099.0000
33.3423	1051.0000
33.3628	1041.0000
33.3833	1036.0000
33.4038	1079.0000
33.4242	975.0000
33.4447	1065.0000
33.4652	1035.0000
33.4857	1078.0000
33.5061	1041.0000
33.5266	989.0000
33.5471	997.0000
33.5676	1045.0000
33.5880	997.0000
33.6085	1036.0000
33.6290	1030.0000
33.6495	1100.0000
33.6699	1089.0000
33.6904	1072.0000
33.7109	1048.0000
33.7314	1067.0000
33.7519	1036.0000
33.7723	1038.0000
33.7928	1064.0000
33.8133	1076.0000
33.8338	1024.0000
33.8542	1083.0000
33.8747	1052.0000
33.8952	1056.0000
33.9157	1069.0000
33.9361	1042.0000
33.9566	1053.0000
33.9771	1042.0000
33.9976	1010.0000
34.0180	1074.0000
34.0385	1102.0000
34.0590	1035.0000
34.0795	1082.0000
34.0999	1070.0000
34.1204	1100.0000
34.1409	1087.0000
34.1614	1080.0000
34.1818	1074.0000
34.2023	1113.0000
34.2228	1122.0000
34.2433	1145.0000
34.2637	1108.0000
34.2842	1149.0000
34.3047	1080.0000
34.3252	1089.0000
34.3456	1084.0000
34.3661	1149.0000
34.3866	1080.0000
34.4071	1139.0000
34.4275	1153.0000
34.4480	1192.0000
34.4685	1175.0000
34.4890	1275.0000
34.5094	1190.0000
34.5299	1166.0000
34.5504	1268.0000
34.5709	1163.0000
34.5914	1201.0000
34.6118	1227.0000
34.6323	1202.0000
34.6528	1226.0000
34.6733	1255.0000
34.6937	1210.0000
34.7142	1241.0000
34.7347	1189.0000
34.7552	1268.0000
34.7756	1191.0000
34.7961	1217.0000
34.8166	1304.0000
34.8371	1291.0000
34.8575	1273.0000
34.8780	1312.0000
34.8985	1203.0000
34.9190	1331.0000
34.9394	1380.0000
34.9599	1343.0000
34.9804	1289.0000
35.0009	1376.0000
35.0213	1431.0000
35.0418	1388.0000
35.0623	1493.0000
35.0828	1405.0000
35.1032	1483.0000
35.1237	1515.0000
35.1442	1481.0000
35.1647	1619.0000
35.1851	1493.0000
35.2056	1582.0000
35.2261	1631.0000
35.2466	1703.0000
35.2670	1723.0000
35.2875	1778.0000
35.3080	1920.0000
35.3285	2068.0000
35.3490	2043.0000
35.3694	2320.0000
35.3899	2410.0000
35.4104	2650.0000
35.4309	2979.0000
35.4513	3237.0000
35.4718	3571.0000
35.4923	4191.0000
35.5128	4741.0000
35.5332	5475.0000
35.5537	6265.0000
35.5742	7128.0000
35.5947	8024.0000
35.6151	9058.0000
35.6356	10015.0000
35.6561	10954.0000
35.6766	11612.0000
35.6970	11770.0000
35.7175	11932.0000
35.7380	11814.0000
35.7585	11409.0000
35.7789	10799.0000
35.7994	10099.0000
35.8199	9154.0000
35.8404	8174.0000
35.8608	7331.0000
35.8813	6632.0000
35.9018	5805.0000
35.9223	5252.0000
35.9427	4648.0000
35.9632	4231.0000
35.9837	3858.0000
36.0042	3537.0000
36.0246	3050.0000
36.0451	2837.0000
36.0656	2528.0000
36.0861	2436.0000
36.1066	2304.0000
36.1270	2082.0000
36.1475	2003.0000
36.1680	1922.0000
36.1885	1853.0000
36.2089	1721.0000
36.2294	1723.0000
36.2499	1638.0000
36.2704	1632.0000
36.2908	1463.0000
36.3113	1581.0000
36.3318	1437.0000
36.3523	1377.0000
36.3727	1448.0000
36.3932	1371.0000
36.4137	1341.0000
36.4342	1320.0000
36.4546	1284.0000
36.4751	1267.0000
36.4956	1280.0000
36.5161	1371.0000
36.5365	1326.0000
36.5570	1271.0000
36.5775	1271.0000
36.5980	1254.0000
36.6184	1275.0000
36.6389	1217.0000
36.6594	1249.0000
36.6799	1242.0000
36.7003	1255.0000
36.7208	1201.0000
36.7413	1231.0000
36.7618	1171.0000
36.7822	1161.0000
36.8027	1187.0000
36.8232	1238.0000
36.8437	1175.0000
36.8641	1194.0000
36.8846	1211.0000
36.9051	1186.0000
36.9256	1209.0000
36.9461	1180.0000
36.9665	1243.0000
36.9870	1210.0000
37.0075	1181.0000
37.0280	1202.0000
37.0484	1241.0000
37.0689	1245.0000
37.0894	1270.0000
37.1099	1325.0000
37.1303	1351.0000
37.1508	1326.0000
37.1713	1412.0000
37.1918	1393.0000
37.2122	1511.0000
37.2327	1603.0000
37.2532	1595.0000
37.2737	1646.0000
37.2941	1772.0000
37.3146	1770.0000
37.3351	1821.0000
37.3556	1748.0000
37.3760	1850.0000
37.3965	1762.0000
37.4170	1827.0000
37.4375	1736.0000
37.4579	1657.0000
37.4784	1517.0000
37.4989	1508.0000
37.5194	1439.0000
37.5398	1387.0000
37.5603	1336.0000
37.5808	1307.0000
37.6013	1270.0000
37.6217	1211.0000
37.6422	1195.0000
37.6627	1152.0000
37.6832	1173.0000
37.7037	1162.0000
37.7241	1183.0000
37.7446	1104.0000
37.7651	1124.0000
37.7856	1150.0000
37.8060	1107.0000
37.8265	1149.0000
37.8470	1104.0000
37.8675	1032.0000
37.8879	1084.0000
37.9084	1079.0000
37.9289	1011.0000
37.9494	1103.0000
37.9698	1085.0000
37.9903	1117.0000
38.0108	1059.0000
38.0313	1102.0000
38.0517	1074.0000
38.0722	1126.0000
38.0927	1081.0000
38.1132	1052.0000
38.1336	1083.0000
38.1541	1074.0000
38.1746	1055.0000
38.1951	1090.0000
38.2155	1054.0000
38.2360	1066.0000
38.2565	1121.0000
38.2770	1106.0000
38.2974	1056.0000
38.3179	1063.0000
38.3384	995.0000
38.3589	1090.0000
38.3793	1050.0000
38.3998	1053.0000
38.4203	1089.0000
38.4408	1058.0000
38.4612	1096.0000
38.4817	1066.0000
38.5022	1087.0000
38.5227	1091.0000
38.5432	1086.0000
38.5636	1006.0000
38.5841	1088.0000
38.6046	1047.0000
38.6251	1043.0000
38.6455	1002.0000
38.6660	1077.0000
38.6865	1031.0000
38.7070	1010.0000
38.7274	986.0000
38.7479	1032.0000
38.7684	973.0000
38.7889	1025.0000
38.8093	1044.0000
38.8298	1078.0000
38.8503	1037.0000
38.8708	1098.0000
38.8912	1004.0000
38.9117	1050.0000
38.9322	1007.0000
38.9527	1085.0000
38.9731	1028.0000
38.9936	1087.0000
39.0141	1030.0000
39.0346	987.0000
39.0550	1022.0000
39.0755	1019.0000
39.0960	1027.0000
39.1165	1047.0000
39.1369	1044.0000
39.1574	1086.0000
39.1779	1009.0000
39.1984	1035.0000
39.2188	1022.0000
39.2393	1077.0000
39.2598	1082.0000
39.2803	1082.0000
39.3008	1035.0000
39.3212	1033.0000
39.3417	1072.0000
39.3622	1043.0000
39.3827	1005.0000
39.4031	1081.0000
39.4236	1013.0000
39.4441	1014.0000
39.4646	1052.0000
39.4850	1021.0000
39.5055	981.0000
39.5260	1074.0000
39.5465	970.0000
39.5669	1060.0000
39.5874	1037.0000
39.6079	986.0000
39.6284	986.0000
39.6488	976.0000
39.6693	1034.0000
39.6898	1035.0000
39.7103	988.0000
39.7307	1080.0000
39.7512	1014.0000
39.7717	1030.0000
39.7922	1049.0000
39.8126	1083.0000
39.8331	1022.0000
39.8536	1078.0000
39.8741	1042.0000
39.8945	1010.0000
39.9150	1119.0000
39.9355	1060.0000
39.9560	1069.0000
39.9764	1049.0000
39.9969	1014.0000
40.0174	1033.0000
40.0379	1022.0000
40.0583	1035.0000
40.0788	1035.0000
40.0993	1052.0000
40.1198	1015.0000
40.1403	1039.0000
40.1607	1031.0000
40.1812	1043.0000
40.2017	1037.0000
40.2222	1008.0000
40.2426	1004.0000
40.2631	1060.0000
40.2836	1017.0000
40.3041	1034.0000
40.3245	983.0000
40.3450	1050.0000
40.3655	1007.0000
40.3860	1023.0000
40.4064	1072.0000
40.4269	1028.0000
40.4474	1008.0000
40.4679	1045.0000
40.4883	1032.0000
40.5088	1007.0000
40.5293	1067.0000
40.5498	972.0000
40.5702	1031.0000
40.5907	1051.0000
40.6112	1017.0000
40.6317	994.0000
40.6521	1024.0000
40.6726	984.0000
40.6931	1013.0000
40.7136	1041.0000
40.7340	991.0000
40.7545	1014.0000
40.7750	1000.0000
40.7955	1043.0000
40.8159	1005.0000
40.8364	1071.0000
40.8569	1059.0000
40.8774	1044.0000
40.8979	1043.0000
40.9183	1054.0000
40.9388	998.0000
40.9593	1041.0000
40.9798	994.0000
41.0002	1078.0000
41.0207	1041.0000
41.0412	993.0000
41.0617	1021.0000
41.0821	1077.0000
41.1026	1032.0000
41.1231	967.0000
41.1436	1023.0000
41.1640	1065.0000
41.1845	1061.0000
41.2050	1062.0000
41.2255	1031.0000
41.2459	992.0000
41.2664	1010.0000
41.2869	1040.0000
41.3074	1049.0000
41.3278	1041.0000
41.3483	1049.0000
41.3688	1035.0000
41.3893	1044.0000
41.4097	1051.0000
41.4302	1004.0000
41.4507	986.0000
41.4712	1009.0000
41.4916	1055.0000
41.5121	1011.0000
41.5326	969.0000
41.5531	931.0000
41.5735	1082.0000
41.5940	1001.0000
41.6145	1052.0000
41.6350	1055.0000
41.6555	1023.0000
41.6759	1001.0000
41.6964	1036.0000
41.7169	1027.0000
41.7374	1081.0000
41.7578	1039.0000
41.7783	1035.0000
41.7988	1017.0000
41.8193	1101.0000
41.8397	1054.0000
41.8602	1048.0000
41.8807	1076.0000
41.9012	1016.0000
41.9216	1041.0000
41.9421	1015.0000
41.9626	1112.0000
41.9831	1035.0000
42.0035	1022.0000
42.0240	1045.0000
42.0445	1049.0000
42.0650	1055.0000
42.0854	1001.0000
42.1059	993.0000
42.1264	1088.0000
42.1469	1046.0000
42.1673	964.0000
42.1878	1040.0000
42.2083	1152.0000
42.2288	1041.0000
42.2492	1036.0000
42.2697	1039.0000
42.2902	1011.0000
42.3107	1084.0000
42.3311	1031.0000
42.3516	1064.0000
42.3721	1071.0000
42.3926	1068.0000
42.4130	1068.0000
42.4335	1020.0000
42.4540	1045.0000
42.4745	1055.0000
42.4950	1071.0000
42.5154	1066.0000
42.5359	1048.0000
42.5564	1041.0000
42.5769	1067.0000
42.5973	1037.0000
42.6178	1102.0000
42.6383	1080.0000
42.6588	1106.0000
42.6792	1100.0000
42.6997	1102.0000
42.7202	1086.0000
42.7407	1143.0000
42.7611	1104.0000
42.7816	1147.0000
42.8021	1098.0000
42.8226	1101.0000
42.8430	1120.0000
42.8635	1063.0000
42.8840	1090.0000
42.9045	1142.0000
42.9249	1126.0000
42.9454	1101.0000
42.9659	1209.0000
42.9864	1229.0000
43.0068	1191.0000
43.0273	1177.0000
43.0478	1252.0000
43.0683	1256.0000
43.0887	1395.0000
43.1092	1373.0000
43.1297	1435.0000
43.1502	1519.0000
43.1706	1616.0000
43.1911	1729.0000
43.2116	1863.0000
43.2321	2069.0000
43.2526	2226.0000
43.2730	2309.0000
43.2935	2567.0000
43.3140	2624.0000
43.3345	2919.0000
43.3549	3055.0000
43.3754	3138.0000
43.3959	3309.0000
43.4164	3300.0000
43.4368	3252.0000
43.4573	3228.0000
43.4778	3147.0000
43.4983	3072.0000
43.5187	2891.0000
43.5392	2661.0000
43.5597	2572.0000
43.5802	2458.0000
43.6006	2222.0000
43.6211	2097.0000
43.6416	1932.0000
43.6621	1874.0000
43.6825	1690.0000
43.7030	1609.0000
43.7235	1595.0000
43.7440	1474.0000
43.7644	1419.0000
43.7849	1382.0000
43.8054	1351.0000
43.8259	1338.0000
43.8463	1345.0000
43.8668	1217.0000
43.8873	1208.0000
43.9078	1142.0000
43.9282	1187.0000
43.9487	1218.0000
43.9692	1130.0000
43.9897	1243.0000
44.0101	1142.0000
44.0306	1106.0000
44.0511	1133.0000
44.0716	1166.0000
44.0921	1103.0000
44.1125	1110.0000
44.1330	1079.0000
44.1535	1105.0000
44.1740	1099.0000
44.1944	1087.0000
44.2149	1041.0000
44.2354	1093.0000
44.2559	1112.0000
44.2763	1080.0000
44.2968	1072.0000
44.3173	1081.0000
44.3378	1046.0000
44.3582	1087.0000
44.3787	1030.0000
44.3992	1040.0000
44.4197	1042.0000
44.4401	1050.0000
44.4606	1049.0000
44.4811	1057.0000
44.5016	1058.0000
44.5220	1035.0000
44.5425	1053.0000
44.5630	1052.0000
44.5835	979.0000
44.6039	1080.0000
44.6244	1080.0000
44.6449	1110.0000
44.6654	1066.0000
44.6858	1066.0000
44.7063	1018.0000
44.7268	1004.0000
44.7473	1061.0000
44.7677	996.0000
44.7882	1040.0000
44.8087	1007.0000
44.8292	1047.0000
44.8497	1068.0000
44.8701	1040.0000
44.8906	1036.0000
44.9111	1085.0000
44.9316	1069.0000
44.9520	995.0000
44.9725	1094.0000
44.9930	1000.0000
45.0135	1096.0000
45.0339	1006.0000
45.0544	1038.0000
45.0749	1038.0000
45.0954	1088.0000
45.1158	1043.0000
45.1363	1012.0000
45.1568	1047.0000
45.1773	1067.0000
45.1977	1020.0000
45.2182	1066.0000
45.2387	1000.0000
45.2592	1042.0000
45.2796	1028.0000
45.3001	1037.0000
45.3206	990.0000
45.3411	1067.0000
45.3615	1038.0000
45.3820	1073.0000
45.4025	961.0000
45.4230	1057.0000
45.4434	1039.0000
45.4639	1042.0000
45.4844	1017.0000
45.5049	1011.0000
45.5253	1038.0000
45.5458	1058.0000
45.5663	1047.0000
45.5868	1051.0000
45.6073	1103.0000
45.6277	1056.0000
45.6482	1105.0000
45.6687	1051.0000
45.6892	1079.0000
45.7096	1028.0000
45.7301	1012.0000
45.7506	1053.0000
45.7711	1027.0000
45.7915	1024.0000
45.8120	949.0000
45.8325	997.0000
45.8530	1018.0000
45.8734	1014.0000
45.8939	1012.0000
45.9144	1045.0000
45.9349	1061.0000
45.9553	1009.0000
45.9758	1017.0000
45.9963	1006.0000
46.0168	1036.0000
46.0372	1024.0000
46.0577	1066.0000
46.0782	981.0000
46.0987	980.0000
46.1191	1074.0000
46.1396	1026.0000
46.1601	1028.0000
46.1806	1045.0000
46.2010	1027.0000
46.2215	995.0000
46.2420	1038.0000
46.2625	1063.0000
46.2829	974.0000
46.3034	1032.0000
46.3239	1082.0000
46.3444	1028.0000
46.3648	1003.0000
46.3853	1020.0000
46.4058	1043.0000
46.4263	1027.0000
46.4468	1046.0000
46.4672	1056.0000
46.4877	1039.0000
46.5082	1017.0000
46.5287	993.0000
46.5491	1060.0000
46.5696	1033.0000
46.5901	1008.0000
46.6106	1038.0000
46.6310	1026.0000
46.6515	990.0000
46.6720	1054.0000
46.6925	1012.0000
46.7129	1070.0000
46.7334	1008.0000
46.7539	1002.0000
46.7744	1000.0000
46.7948	990.0000
46.8153	975.0000
46.8358	1048.0000
46.8563	1029.0000
46.8767	1123.0000
46.8972	1073.0000
46.9177	1044.0000
46.9382	1062.0000
46.9586	1043.0000
46.9791	1029.0000
46.9996	1003.0000
47.0201	983.0000
47.0405	1036.0000
47.0610	1054.0000
47.0815	1053.0000
47.1020	1070.0000
47.1224	1009.0000
47.1429	1046.0000
47.1634	1042.0000
47.1839	1028.0000
47.2044	985.0000
47.2248	1050.0000
47.2453	1011.0000
47.2658	1092.0000
47.2863	1035.0000
47.3067	1071.0000
47.3272	994.0000
47.3477	999.0000
47.3682	999.0000
47.3886	993.0000
47.4091	1095.0000
47.4296	1042.0000
47.4501	1055.0000
47.4705	1049.0000
47.4910	1038.0000
47.5115	1068.0000
47.5320	1036.0000
47.5524	1040.0000
47.5729	1078.0000
47.5934	1047.0000
47.6139	1003.0000
47.6343	1071.0000
47.6548	1089.0000
47.6753	1051.0000
47.6958	1036.0000
47.7162	1066.0000
47.7367	1046.0000
47.7572	1085.0000
47.7777	1043.0000
47.7981	1004.0000
47.8186	1037.0000
47.8391	1082.0000
47.8596	1048.0000
47.8800	1067.0000
47.9005	1095.0000
47.9210	1008.0000
47.9415	1041.0000
47.9619	991.0000
47.9824	1064.0000
48.0029	971.0000
48.0234	985.0000
48.0439	1038.0000
48.0643	967.0000
48.0848	1048.0000
48.1053	971.0000
48.1258	1031.0000
48.1462	1004.0000
48.1667	1058.0000
48.1872	1060.0000
48.2077	1103.0000
48.2281	1010.0000
48.2486	1021.0000
48.2691	1022.0000
48.2896	1044.0000
48.3100	1114.0000
48.3305	1022.0000
48.3510	1020.0000
48.3715	1036.0000
48.3919	1078.0000
48.4124	1023.0000
48.4329	1055.0000
48.4534	1062.0000
48.4738	1068.0000
48.4943	1016.0000
48.5148	989.0000
48.5353	1049.0000
48.5557	1032.0000
48.5762	1062.0000
48.5967	1059.0000
48.6172	1003.0000
48.6376	1070.0000
48.6581	1032.0000
48.6786	1038.0000
48.6991	1018.0000
48.7195	1032.0000
48.7400	1047.0000
48.7605	1040.0000
48.7810	992.0000
48.8015	1067.0000
48.8219	1036.0000
48.8424	1014.0000
48.8629	1008.0000
48.8834	1011.0000
48.9038	975.0000
48.9243	1056.0000
48.9448	992.0000
48.9653	988.0000
48.9857	1007.0000
49.0062	1064.0000
49.0267	1048.0000
49.0472	989.0000
49.0676	1035.0000
49.0881	1055.0000
49.1086	1067.0000
49.1291	1062.0000
49.1495	1059.0000
49.1700	1007.0000
49.1905	1071.0000
49.2110	1022.0000
49.2314	997.0000
49.2519	1049.0000
49.2724	1026.0000
49.2929	994.0000
49.3133	1105.0000
49.3338	1075.0000
49.3543	1012.0000
49.3748	1064.0000
49.3952	1036.0000
49.4157	989.0000
49.4362	991.0000
49.4567	1082.0000
49.4771	1053.0000
49.4976	967.0000
49.5181	1022.0000
49.5386	1021.0000
49.5591	1016.0000
49.5795	992.0000
49.6000	1019.0000
49.6205	1083.0000
49.6410	989.0000
49.6614	1009.0000
49.6819	1020.0000
49.7024	1000.0000
49.7229	1012.0000
49.7433	994.0000
49.7638	1042.0000
49.7843	1023.0000
49.8048	1047.0000
49.8252	1043.0000
49.8457	1031.0000
49.8662	1016.0000
49.8867	1031.0000
49.9071	1022.0000
49.9276	1056.0000
49.9481	1019.0000
49.9686	1032.0000
49.9890	1009.0000
50.0095	1112.0000
50.0300	946.0000
50.0505	992.0000
50.0709	1003.0000
50.0914	1018.0000
50.1119	1022.0000
50.1324	1039.0000
50.1528	1052.0000
50.1733	1032.0000
50.1938	1065.0000
50.2143	1042.0000
50.2347	1040.0000
50.2552	1068.0000
50.2757	1090.0000
50.2962	1035.0000
50.3166	1053.0000
50.3371	1067.0000
50.3576	1018.0000
50.3781	1049.0000
50.3986	1034.0000
50.4190	1004.0000
50.4395	1022.0000
50.4600	1059.0000
50.4805	1051.0000
50.5009	1072.0000
50.5214	1044.0000
50.5419	1015.0000
50.5624	988.0000
50.5828	1115.0000
50.6033	999.0000
50.6238	1027.0000
50.6443	996.0000
50.6647	1031.0000
50.6852	998.0000
50.7057	1035.0000
50.7262	1041.0000
50.7466	1069.0000
50.7671	1038.0000
50.7876	941.0000
50.8081	1043.0000
50.8285	1004.0000
50.8490	1051.0000
50.8695	1044.0000
50.8900	980.0000
50.9104	1068.0000
50.9309	1029.0000
50.9514	1029.0000
50.9719	1051.0000
50.9923	998.0000
51.0128	1052.0000
51.0333	1049.0000
51.0538	1011.0000
51.0742	1078.0000
51.0947	1028.0000
51.1152	1043.0000
51.1357	1015.0000
51.1562	1003.0000
51.1766	1067.0000
51.1971	1008.0000
51.2176	1017.0000
51.2381	1007.0000
51.2585	1083.0000
51.2790	1023.0000
51.2995	960.0000
51.3200	973.0000
51.3404	1017.0000
51.3609	1008.0000
51.3814	1059.0000
51.4019	1086.0000
51.4223	1041.0000
51.4428	1085.0000
51.4633	1031.0000
51.4838	1002.0000
51.5042	1040.0000
51.5247	1023.0000
51.5452	1000.0000
51.5657	1017.0000
51.5861	1005.0000
51.6066	1080.0000
51.6271	1020.0000
51.6476	1020.0000
51.6680	1040.0000
51.6885	1045.0000
51.7090	1086.0000
51.7295	1019.0000
51.7499	987.0000
51.7704	1042.0000
51.7909	1051.0000
51.8114	1044.0000
51.8318	1101.0000
51.8523	1050.0000
51.8728	1083.0000
51.8933	1038.0000
51.9137	1105.0000
51.9342	998.0000
51.9547	1073.0000
51.9752	1029.0000
51.9957	1012.0000
52.0161	1015.0000
52.0366	1041.0000
52.0571	1069.0000
52.0776	1036.0000
52.0980	1027.0000
52.1185	1067.0000
52.1390	1052.0000
52.1595	1046.0000
52.1799	1073.0000
52.2004	985.0000
52.2209	1027.0000
52.2414	1042.0000
52.2618	1090.0000
52.2823	984.0000
52.3028	1079.0000
52.3233	1058.0000
52.3437	1064.0000
52.3642	1023.0000
52.3847	1057.0000
52.4052	989.0000
52.4256	1073.0000
52.4461	1057.0000
52.4666	982.0000
52.4871	954.0000
52.5075	1047.0000
52.5280	1060.0000
52.5485	1067.0000
52.5690	1099.0000
52.5894	1045.0000
52.6099	1021.0000
52.6304	1014.0000
52.6509	1006.0000
52.6713	1084.0000
52.6918	1077.0000
52.7123	1055.0000
52.7328	1077.0000
52.7533	1039.0000
52.7737	1067.0000
52.7942	1073.0000
52.8147	1036.0000
52.8352	1006.0000
52.8556	1060.0000
52.8761	1044.0000
52.8966	1003.0000
52.9171	1096.0000
52.9375	1027.0000
52.9580	1025.0000
52.9785	1029.0000
52.9990	1048.0000
53.0194	1078.0000
53.0399	1138.0000
53.0604	1084.0000
53.0809	1012.0000
53.1013	1048.0000
53.1218	1009.0000
53.1423	1076.0000
53.1628	1059.0000
53.1832	1075.0000
53.2037	1052.0000
53.2242	1047.0000
53.2447	1054.0000
53.2651	1092.0000
53.2856	1082.0000
53.3061	1105.0000
53.3266	1102.0000
53.3470	1076.0000
53.3675	1164.0000
53.3880	1106.0000
53.4085	1154.0000
53.4289	1076.0000
53.4494	1123.0000
53.4699	1134.0000
53.4904	1088.0000
53.5109	1148.0000
53.5313	1195.0000
53.5518	1182.0000
53.5723	1309.0000
53.5928	1233.0000
53.6132	1304.0000
53.6337	1328.0000
53.6542	1376.0000
53.6747	1435.0000
53.6951	1483.0000
53.7156	1550.0000
53.7361	1629.0000
53.7566	1744.0000
53.7770	1736.0000
53.7975	1797.0000
53.8180	1849.0000
53.8385	1869.0000
53.8589	1893.0000
53.8794	1874.0000
53.8999	1828.0000
53.9204	1867.0000
53.9408	1847.0000
53.9613	1825.0000
53.9818	1774.0000
54.0023	1721.0000
54.0227	1698.0000
54.0432	1616.0000
54.0637	1564.0000
54.0842	1481.0000
54.1046	1488.0000
54.1251	1496.0000
54.1456	1359.0000
54.1661	1336.0000
54.1865	1202.0000
54.2070	1316.0000
54.2275	1286.0000
54.2480	1220.0000
54.2684	1204.0000
54.2889	1221.0000
54.3094	1146.0000
54.3299	1175.0000
54.3504	1100.0000
54.3708	1141.0000
54.3913	1185.0000
54.4118	1111.0000
54.4323	1067.0000
54.4527	1088.0000
54.4732	1115.0000
54.4937	1076.0000
54.5142	1114.0000
54.5346	1112.0000
54.5551	1058.0000
54.5756	1122.0000
54.5961	1089.0000
54.6165	1082.0000
54.6370	1052.0000
54.6575	1117.0000
54.6780	1089.0000
54.6984	1097.0000
54.7189	1104.0000
54.7394	1109.0000
54.7599	1036.0000
54.7803	1037.0000
54.8008	1081.0000
54.8213	1068.0000
54.8418	1014.0000
54.8622	1127.0000
54.8827	1064.0000
54.9032	1135.0000
54.9237	1075.0000
54.9441	1077.0000
54.9646	1125.0000
54.9851	1074.0000
55.0056	1033.0000
55.0260	1017.0000
55.0465	1021.0000
55.0670	1040.0000
55.0875	1059.0000
55.1080	1062.0000
55.1284	1078.0000
55.1489	1057.0000
55.1694	1072.0000
55.1899	1052.0000
55.2103	1142.0000
55.2308	1074.0000
55.2513	1073.0000
55.2718	1086.0000
55.2922	1083.0000
55.3127	1106.0000
55.3332	1052.0000
55.3537	1093.0000
55.3741	1079.0000
55.3946	1039.0000
55.4151	1050.0000
55.4356	1007.0000
55.4560	1099.0000
55.4765	1050.0000
55.4970	1040.0000
55.5175	1025.0000
55.5379	1045.0000
55.5584	1063.0000
55.5789	1111.0000
55.5994	1059.0000
55.6198	1087.0000
55.6403	1056.0000
55.6608	1087.0000
55.6813	1065.0000
55.7017	1043.0000
55.7222	1125.0000
55.7427	1095.0000
55.7632	1066.0000
55.7836	1065.0000
55.8041	1076.0000
55.8246	1059.0000
55.8451	1045.0000
55.8655	1027.0000
55.8860	993.0000
55.9065	1041.0000
55.9270	1118.0000
55.9475	1079.0000
55.9679	1096.0000
55.9884	1159.0000
56.0089	1047.0000
56.0294	1088.0000
56.0498	1095.0000
56.0703	1048.0000
56.0908	1064.0000
56.1113	1061.0000
56.1317	1055.0000
56.1522	1119.0000
56.1727	1116.0000
56.1932	1061.0000
56.2136	1087.0000
56.2341	1079.0000
56.2546	1104.0000
56.2751	1069.0000
56.2955	1124.0000
56.3160	1097.0000
56.3365	1128.0000
56.3570	1086.0000
56.3774	1137.0000
56.3979	1076.0000
56.4184	1095.0000
56.4389	1095.0000
56.4593	1158.0000
56.4798	1123.0000
56.5003	1064.0000
56.5208	1148.0000
56.5412	1148.0000
56.5617	1096.0000
56.5822	1115.0000
56.6027	1096.0000
56.6231	1109.0000
56.6436	1148.0000
56.6641	1122.0000
56.6846	1115.0000
56.7051	1184.0000
56.7255	1148.0000
56.7460	1184.0000
56.7665	1183.0000
56.7870	1205.0000
56.8074	1239.0000
56.8279	1209.0000
56.8484	1267.0000
56.8689	1207.0000
56.8893	1288.0000
56.9098	1327.0000
56.9303	1303.0000
56.9508	1338.0000
56.9712	1293.0000
56.9917	1355.0000
57.0122	1419.0000
57.0327	1475.0000
57.0531	1466.0000
57.0736	1643.0000
57.0941	1627.0000
57.1146	1731.0000
57.1350	1717.0000
57.1555	1921.0000
57.1760	1996.0000
57.1965	2142.0000
57.2169	2373.0000
57.2374	2365.0000
57.2579	2646.0000
57.2784	2873.0000
57.2988	3016.0000
57.3193	3216.0000
57.3398	3419.0000
57.3603	3592.0000
57.3807	3611.0000
57.4012	3851.0000
57.4217	3939.0000
57.4422	3925.0000
57.4626	3667.0000
57.4831	3767.0000
57.5036	3759.0000
57.5241	3692.0000
57.5446	3550.0000
57.5650	3356.0000
57.5855	3233.0000
57.6060	3086.0000
57.6265	2798.0000
57.6469	2716.0000
57.6674	2478.0000
57.6879	2349.0000
57.7084	2249.0000
57.7288	2163.0000
57.7493	2030.0000
57.7698	1928.0000
57.7903	1755.0000
57.8107	1691.0000
57.8312	1576.0000
57.8517	1597.0000
57.8722	1468.0000
57.8926	1481.0000
57.9131	1490.0000
57.9336	1330.0000
57.9541	1260.0000
57.9745	1329.0000
57.9950	1243.0000
58.0155	1329.0000
58.0360	1223.0000
58.0564	1205.0000
58.0769	1228.0000
58.0974	1177.0000
58.1179	1248.0000
58.1383	1153.0000
58.1588	1119.0000
58.1793	1221.0000
58.1998	1184.0000
58.2202	1095.0000
58.2407	1176.0000
58.2612	1157.0000
58.2817	1157.0000
58.3022	1117.0000
58.3226	1127.0000
58.3431	1130.0000
58.3636	1110.0000
58.3841	1085.0000
58.4045	1093.0000
58.4250	1094.0000
58.4455	1120.0000
58.4660	1091.0000
58.4864	1100.0000
58.5069	1083.0000
58.5274	1121.0000
58.5479	1115.0000
58.5683	1137.0000
58.5888	1125.0000
58.6093	1051.0000
58.6298	1072.0000
58.6502	1081.0000
58.6707	1096.0000
58.6912	1049.0000
58.7117	1035.0000
58.7321	1081.0000
58.7526	1013.0000
58.7731	995.0000
58.7936	1081.0000
58.8140	1038.0000
58.8345	1022.0000
58.8550	1100.0000
58.8755	1106.0000
58.8959	1094.0000
58.9164	1100.0000
58.9369	1009.0000
58.9574	1084.0000
58.9778	1043.0000
58.9983	1029.0000
59.0188	1063.0000
59.0393	1062.0000
59.0598	1035.0000
59.0802	1069.0000
59.1007	1081.0000
59.1212	1070.0000
59.1417	1035.0000
59.1621	1056.0000
59.1826	996.0000
59.2031	1049.0000
59.2236	1072.0000
59.2440	1036.0000
59.2645	969.0000
59.2850	1042.0000
59.3055	1058.0000
59.3259	1051.0000
59.3464	1052.0000
59.3669	1043.0000
59.3874	1046.0000
59.4078	1059.0000
59.4283	1033.0000
59.4488	1044.0000
59.4693	1037.0000
59.4897	1046.0000
59.5102	1045.0000
59.5307	1040.0000
59.5512	1078.0000
59.5716	1017.0000
59.5921	1048.0000
59.6126	991.0000
59.6331	1040.0000
59.6535	1068.0000
59.6740	1023.0000
59.6945	1054.0000
59.7150	1024.0000
59.7354	1118.0000
59.7559	1088.0000
59.7764	1026.0000
59.7969	996.0000
59.8173	1022.0000
59.8378	947.0000
59.8583	1060.0000
59.8788	1023.0000
59.8993	1033.0000
59.9197	1004.0000
59.9402	1044.0000
59.9607	1058.0000
59.9812	1031.0000
60.0016	1097.0000
60.0221	1086.0000
60.0426	1033.0000
60.0631	1031.0000
60.0835	982.0000
60.1040	1102.0000
60.1245	1102.0000
60.1450	1086.0000
60.1654	1020.0000
60.1859	1059.0000
60.2064	1062.0000
60.2269	1068.0000
60.2473	1074.0000
60.2678	1040.0000
60.2883	1096.0000
60.3088	1027.0000
60.3292	1020.0000
60.3497	1003.0000
60.3702	995.0000
60.3907	1022.0000
60.4111	1059.0000
60.4316	1038.0000
60.4521	1112.0000
60.4726	1085.0000
60.4930	1060.0000
60.5135	1065.0000
60.5340	1026.0000
60.5545	1045.0000
60.5749	1076.0000
60.5954	1084.0000
60.6159	997.0000
60.6364	1033.0000
60.6569	1040.0000
60.6773	1071.0000
60.6978	1051.0000
60.7183	1066.0000
60.7388	1036.0000
60.7592	1109.0000
60.7797	1017.0000
60.8002	1087.0000
60.8207	1015.0000
60.8411	1048.0000
60.8616	1085.0000
60.8821	1089.0000
60.9026	1111.0000
60.9230	1010.0000
60.9435	1047.0000
60.9640	1059.0000
60.9845	1101.0000
61.0049	1083.0000
61.0254	1035.0000
61.0459	1105.0000
61.0664	1072.0000
61.0868	1069.0000
61.1073	1016.0000
61.1278	1005.0000
61.1483	1076.0000
61.1687	1049.0000
61.1892	1067.0000
61.2097	1033.0000
61.2302	1025.0000
61.2506	1033.0000
61.2711	1052.0000
61.2916	1066.0000
61.3121	1020.0000
61.3325	1072.0000
61.3530	1105.0000
61.3735	1064.0000
61.3940	1082.0000
61.4144	1042.0000
61.4349	1062.0000
61.4554	1045.0000
61.4759	1087.0000
61.4964	1077.0000
61.5168	1023.0000
61.5373	1026.0000
61.5578	1087.0000
61.5783	1118.0000
61.5987	1082.0000
61.6192	1073.0000
61.6397	1074.0000
61.6602	1076.0000
61.6806	1077.0000
61.7011	994.0000
61.7216	1106.0000
61.7421	1117.0000
61.7625	1053.0000
61.7830	1124.0000
61.8035	1106.0000
61.8240	1022.0000
61.8444	1077.0000
61.8649	1092.0000
61.8854	1047.0000
61.9059	1078.0000
61.9263	1122.0000
61.9468	1118.0000
61.9673	1196.0000
61.9878	1089.0000
62.0082	1048.0000
62.0287	1178.0000
62.0492	1137.0000
62.0697	1123.0000
62.0901	1132.0000
62.1106	1185.0000
62.1311	1088.0000
62.1516	1120.0000
62.1720	1165.0000
62.1925	1176.0000
62.2130	1080.0000
62.2335	1176.0000
62.2540	1172.0000
62.2744	1109.0000
62.2949	1220.0000
62.3154	1125.0000
62.3359	1170.0000
62.3563	1243.0000
62.3768	1175.0000
62.3973	1185.0000
62.4178	1179.0000
62.4382	1170.0000
62.4587	1253.0000
62.4792	1236.0000
62.4997	1208.0000
62.5201	1231.0000
62.5406	1238.0000
62.5611	1263.0000
62.5816	1332.0000
62.6020	1413.0000
62.6225	1390.0000
62.6430	1509.0000
62.6635	1530.0000
62.6839	1615.0000
62.7044	1616.0000
62.7249	1722.0000
62.7454	1821.0000
62.7658	1967.0000
62.7863	2001.0000
62.8068	2233.0000
62.8273	2361.0000
62.8477	2467.0000
62.8682	2707.0000
62.8887	2911.0000
62.9092	3136.0000
62.9296	3181.0000
62.9501	3581.0000
62.9706	3940.0000
62.9911	4084.0000
63.0116	4361.0000
63.0320	4317.0000
63.0525	4593.0000
63.0730	4547.0000
63.0935	4588.0000
63.1139	4450.0000
63.1344	4518.0000
63.1549	4344.0000
63.1754	4266.0000
63.1958	4097.0000
63.2163	3891.0000
63.2368	3749.0000
63.2573	3673.0000
63.2777	3398.0000
63.2982	3243.0000
63.3187	2998.0000
63.3392	2835.0000
63.3596	2667.0000
63.3801	2432.0000
63.4006	2285.0000
63.4211	2160.0000
63.4415	2108.0000
63.4620	1956.0000
63.4825	1906.0000
63.5030	1793.0000
63.5234	1687.0000
63.5439	1574.0000
63.5644	1506.0000
63.5849	1450.0000
63.6053	1414.0000
63.6258	1446.0000
63.6463	1383.0000
63.6668	1348.0000
63.6872	1304.0000
63.7077	1252.0000
63.7282	1271.0000
63.7487	1301.0000
63.7691	1196.0000
63.7896	1211.0000
63.8101	1168.0000
63.8306	1165.0000
63.8511	1139.0000
63.8715	1151.0000
63.8920	1166.0000
63.9125	1155.0000
63.9330	1177.0000
63.9534	1201.0000
63.9739	1096.0000
63.9944	1161.0000
64.0149	1116.0000
64.0353	1137.0000
64.0558	1096.0000
64.0763	1049.0000
64.0968	1145.0000
64.1172	1155.0000
64.1377	1085.0000
64.1582	1153.0000
64.1787	1136.0000
64.1991	1062.0000
64.2196	1049.0000
64.2401	1070.0000
64.2606	1066.0000
64.2810	1034.0000
64.3015	1123.0000
64.3220	1103.0000
64.3425	1080.0000
64.3629	1055.0000
64.3834	1058.0000
64.4039	1039.0000
64.4244	1030.0000
64.4448	1080.0000
64.4653	1112.0000
64.4858	1069.0000
64.5063	1083.0000
64.5267	1043.0000
64.5472	1051.0000
64.5677	1070.0000
64.5882	1061.0000
64.6087	1085.0000
64.6291	1079.0000
64.6496	1045.0000
64.6701	1055.0000
64.6906	1029.0000
64.7110	1042.0000
64.7315	1050.0000
64.7520	1081.0000
64.7725	1035.0000
64.7929	1056.0000
64.8134	1060.0000
64.8339	1044.0000
64.8544	992.0000
64.8748	1006.0000
64.8953	1038.0000
64.9158	1049.0000
64.9363	1089.0000
64.9567	1103.0000
64.9772	1028.0000
64.9977	1122.0000
65.0182	1076.0000
65.0386	1056.0000
65.0591	1035.0000
65.0796	1044.0000
65.1001	1048.0000
65.1205	1015.0000
65.1410	1078.0000
65.1615	1093.0000
65.1820	1018.0000
65.2024	1070.0000
65.2229	1050.0000
65.2434	1055.0000
65.2639	1050.0000
65.2843	1011.0000
65.3048	1036.0000
65.3253	1080.0000
65.3458	1118.0000
65.3662	1025.0000
65.3867	980.0000
65.4072	1129.0000
65.4277	1085.0000
65.4482	1045.0000
65.4686	1000.0000
65.4891	1073.0000
65.5096	1035.0000
65.5301	1078.0000
65.5505	1049.0000
65.5710	976.0000
65.5915	1053.0000
65.6120	1040.0000
65.6324	980.0000
65.6529	1052.0000
65.6734	1025.0000
65.6939	1012.0000
65.7143	1028.0000
65.7348	1007.0000
65.7553	937.0000
65.7758	1046.0000
65.7962	1032.0000
65.8167	999.0000
65.8372	1019.0000
65.8577	1079.0000
65.8781	1007.0000
65.8986	1086.0000
65.9191	1076.0000
65.9396	1047.0000
65.9600	1062.0000
65.9805	1046.0000
66.0010	1092.0000
66.0215	1053.0000
66.0419	1071.0000
66.0624	1140.0000
66.0829	1084.0000
66.1034	1080.0000
66.1238	1083.0000
66.1443	1096.0000
66.1648	1040.0000
66.1853	1101.0000
66.2058	1128.0000
66.2262	1057.0000
66.2467	1122.0000
66.2672	1095.0000
66.2877	1142.0000
66.3081	1135.0000
66.3286	1190.0000
66.3491	1149.0000
66.3696	1117.0000
66.3900	1135.0000
66.4105	1119.0000
66.4310	1126.0000
66.4515	1097.0000
66.4719	1169.0000
66.4924	1045.0000
66.5129	1082.0000
66.5334	1111.0000
66.5538	1055.0000
66.5743	1110.0000
66.5948	1088.0000
66.6153	1054.0000
66.6357	1094.0000
66.6562	1016.0000
66.6767	1080.0000
66.6972	1062.0000
66.7176	1068.0000
66.7381	1060.0000
66.7586	1050.0000
66.7791	1060.0000
66.7995	1057.0000
66.8200	1080.0000
66.8405	1070.0000
66.8610	1089.0000
66.8814	1010.0000
66.9019	1012.0000
66.9224	1022.0000
66.9429	1003.0000
66.9634	1040.0000
66.9838	1016.0000
67.0043	1047.0000
67.0248	963.0000
67.0453	1015.0000
67.0657	1008.0000
67.0862	1044.0000
67.1067	1037.0000
67.1272	1055.0000
67.1476	1045.0000
67.1681	1021.0000
67.1886	1020.0000
67.2091	1088.0000
67.2295	1069.0000
67.2500	1011.0000
67.2705	1065.0000
67.2910	993.0000
67.3114	1034.0000
67.3319	1041.0000
67.3524	990.0000
67.3729	1053.0000
67.3933	1046.0000
67.4138	1057.0000
67.4343	1022.0000
67.4548	1008.0000
67.4752	1005.0000
67.4957	977.0000
67.5162	963.0000
67.5367	1011.0000
67.5571	1039.0000
67.5776	972.0000
67.5981	1001.0000
67.6186	1068.0000
67.6390	986.0000
67.6595	945.0000
67.6800	996.0000
67.7005	1051.0000
67.7209	1044.0000
67.7414	1008.0000
67.7619	1032.0000
67.7824	1052.0000
67.8029	1061.0000
67.8233	1043.0000
67.8438	1025.0000
67.8643	1039.0000
67.8848	1018.0000
67.9052	1034.0000
67.9257	1008.0000
67.9462	1000.0000
67.9667	984.0000
67.9871	1002.0000
68.0076	989.0000
68.0281	1035.0000
68.0486	960.0000
68.0690	1047.0000
68.0895	1039.0000
68.1100	1036.0000
68.1305	1034.0000
68.1509	1018.0000
68.1714	1008.0000
68.1919	1037.0000
68.2124	1043.0000
68.2328	1071.0000
68.2533	1012.0000
68.2738	1002.0000
68.2943	995.0000
68.3147	1043.0000
68.3352	1028.0000
68.3557	945.0000
68.3762	1030.0000
68.3966	1020.0000
68.4171	1042.0000
68.4376	1052.0000
68.4581	1068.0000
68.4785	1004.0000
68.4990	972.0000
68.5195	1000.0000
68.5400	992.0000
68.5605	1053.0000
68.5809	1046.0000
68.6014	1014.0000
68.6219	1081.0000
68.6424	1009.0000
68.6628	1040.0000
68.6833	1018.0000
68.7038	1011.0000
68.7243	1060.0000
68.7447	1031.0000
68.7652	1016.0000
68.7857	1052.0000
68.8062	998.0000
68.8266	997.0000
68.8471	1013.0000
68.8676	1049.0000
68.8881	993.0000
68.9085	1002.0000
68.9290	1004.0000
68.9495	993.0000
68.9700	1027.0000
68.9904	981.0000
69.0109	1025.0000
69.0314	1042.0000
69.0519	984.0000
69.0723	1018.0000
69.0928	1012.0000
69.1133	975.0000
69.1338	1024.0000
69.1542	953.0000
69.1747	1061.0000
69.1952	992.0000
69.2157	991.0000
69.2361	1005.0000
69.2566	1018.0000
69.2771	1001.0000
69.2976	1009.0000
69.3180	1033.0000
69.3385	973.0000
69.3590	1017.0000
69.3795	974.0000
69.4000	1018.0000
69.4204	1077.0000
69.4409	1030.0000
69.4614	1067.0000
69.4819	1038.0000
69.5023	1044.0000
69.5228	1006.0000
69.5433	1053.0000
69.5638	993.0000
69.5842	1036.0000
69.6047	1050.0000
69.6252	1099.0000
69.6457	1033.0000
69.6661	1001.0000
69.6866	1036.0000
69.7071	974.0000
69.7276	1049.0000
69.7480	1039.0000
69.7685	976.0000
69.7890	1069.0000
69.8095	962.0000
69.8299	998.0000
69.8504	973.0000
69.8709	1048.0000
69.8914	964.0000
69.9118	1073.0000
69.9323	1052.0000
69.9528	1000.0000
69.9733	1027.0000
69.9937	1026.0000
70.0142	993.0000
