5.00000 22.000
5.04965 17.000
5.09930 22.000
5.14896 23.000
5.19861 24.000
5.24826 15.000
5.29791 18.000
5.34756 23.000
5.39721 21.000
5.44687 17.000
5.49652 28.000
5.54617 22.000
5.59582 18.000
5.64547 20.000
5.69512 25.000
5.74478 19.000
5.79443 26.000
5.84408 20.000
5.89373 15.000
5.94338 27.000
5.99304 22.000
6.04269 25.000
6.09234 24.000
6.14199 22.000
6.19164 24.000
6.24129 19.000
6.29095 26.000
6.34060 21.000
6.39025 22.000
6.43990 13.000
6.48955 34.000
6.53920 18.000
6.58886 16.000
6.63851 23.000
6.68816 29.000
6.73781 34.000
6.78746 24.000
6.83712 23.000
6.88677 27.000
6.93642 28.000
6.98607 24.000
7.03572 28.000
7.08537 28.000
7.13503 27.000
7.18468 27.000
7.23433 27.000
7.28398 18.000
7.33363 21.000
7.38328 23.000
7.43294 27.000
7.48259 27.000
7.53224 15.000
7.58189 24.000
7.63154 21.000
7.68119 26.000
7.73085 21.000
7.78050 19.000
7.83015 25.000
7.87980 27.000
7.92945 24.000
7.97911 23.000
8.02876 25.000
8.07841 19.000
8.12806 23.000
8.17771 29.000
8.22736 21.000
8.27702 27.000
8.32667 21.000
8.37632 28.000
8.42597 24.000
8.47562 14.000
8.52527 27.000
8.57493 23.000
8.62458 30.000
8.67423 24.000
8.72388 24.000
8.77353 19.000
8.82319 30.000
8.87284 24.000
8.92249 18.000
8.97214 20.000
9.02179 26.000
9.07144 31.000
9.12110 16.000
9.17075 26.000
9.22040 20.000
9.27005 16.000
9.31970 18.000
9.36935 21.000
9.41901 17.000
9.46866 16.000
9.51831 19.000
9.56796 21.000
9.61761 23.000
9.66727 23.000
9.71692 20.000
9.76657 14.000
9.81622 21.000
9.86587 20.000
9.91552 14.000
9.96518 23.000
10.01483 20.000
10.06448 17.000
10.11413 15.000
10.16378 15.000
10.21343 32.000
10.26309 22.000
10.31274 24.000
10.36239 22.000
10.41204 11.000
10.46169 15.000
10.51135 18.000
10.56100 19.000
10.61065 19.000
10.66030 23.000
10.70995 17.000
10.75960 18.000
10.80926 16.000
10.85891 28.000
10.90856 24.000
10.95821 15.000
11.00786 22.000
11.05751 18.000
11.10717 23.000
11.15682 22.000
11.20647 27.000
11.25612 20.000
11.30577 22.000
11.35542 20.000
11.40508 13.000
11.45473 13.000
11.50438 28.000
11.55403 22.000
11.60368 15.000
11.65334 18.000
11.70299 17.000
11.75264 19.000
11.80229 17.000
11.85194 17.000
11.90159 17.000
11.95125 19.000
12.00090 16.000
12.05055 17.000
12.10020 15.000
12.14985 21.000
12.19950 22.000
12.24916 29.000
12.29881 14.000
12.34846 25.000
12.39811 21.000
12.44776 21.000
12.49742 16.000
12.54707 16.000
12.59672 19.000
12.64637 19.000
12.69602 18.000
12.74567 22.000
12.79533 21.000
12.84498 14.000
12.89463 17.000
12.94428 20.000
12.99393 24.000
13.04358 11.000
13.09324 19.000
13.14289 25.000
13.19254 28.000
13.24219 19.000
13.29184 11.000
13.34150 17.000
13.39115 25.000
13.44080 13.000
13.49045 19.000
13.54010 15.000
13.58975 21.000
13.63941 27.000
13.68906 17.000
13.73871 14.000
13.78836 16.000
13.83801 18.000
13.88766 21.000
13.93732 16.000
13.98697 26.000
14.03662 14.000
14.08627 15.000
14.13592 21.000
14.18558 25.000
14.23523 25.000
14.28488 22.000
14.33453 18.000
14.38418 16.000
14.43383 20.000
14.48349 27.000
14.53314 17.000
14.58279 15.000
14.63244 12.000
14.68209 24.000
14.73174 18.000
14.78140 18.000
14.83105 11.000
14.88070 20.000
14.93035 12.000
14.98000 20.000
15.02965 12.000
15.07931 20.000
15.12896 11.000
15.17861 25.000
15.22826 18.000
15.27791 22.000
15.32757 21.000
15.37722 28.000
15.42687 17.000
15.47652 19.000
15.52617 15.000
15.57582 17.000
15.62548 18.000
15.67513 21.000
15.72478 19.000
15.77443 12.000
15.82408 24.000
15.87373 20.000
15.92339 24.000
15.97304 12.000
16.02269 13.000
16.07234 17.000
16.12199 21.000
16.17165 15.000
16.22130 14.000
16.27095 18.000
16.32060 16.000
16.37025 18.000
16.41990 20.000
16.46956 27.000
16.51921 15.000
16.56886 10.000
16.61851 15.000
16.66816 13.000
16.71781 11.000
16.76747 12.000
16.81712 21.000
16.86677 19.000
16.91642 16.000
16.96607 19.000
17.01573 18.000
17.06538 17.000
17.11503 23.000
17.16468 21.000
17.21433 15.000
17.26398 20.000
17.31364 21.000
17.36329 18.000
17.41294 16.000
17.46259 17.000
17.51224 14.000
17.56189 20.000
17.61155 19.000
17.66120 19.000
17.71085 26.000
17.76050 16.000
17.81015 16.000
17.85981 18.000
17.90946 17.000
17.95911 18.000
18.00876 19.000
18.05841 16.000
18.10806 18.000
18.15772 18.000
18.20737 9.000
18.25702 20.000
18.30667 20.000
18.35632 14.000
18.40597 21.000
18.45563 21.000
18.50528 24.000
18.55493 16.000
18.60458 17.000
18.65423 15.000
18.70388 24.000
18.75354 11.000
18.80319 15.000
18.85284 20.000
18.90249 19.000
18.95214 26.000
19.00180 12.000
19.05145 19.000
19.10110 18.000
19.15075 27.000
19.20040 17.000
19.25005 16.000
19.29971 19.000
19.34936 17.000
19.39901 23.000
19.44866 19.000
19.49831 21.000
19.54796 17.000
19.59762 17.000
19.64727 28.000
19.69692 20.000
19.74657 19.000
19.79622 20.000
19.84588 21.000
19.89553 22.000
19.94518 14.000
19.99483 19.000
20.04448 24.000
20.09413 19.000
20.14379 14.000
20.19344 17.000
20.24309 20.000
20.29274 22.000
20.34239 20.000
20.39204 24.000
20.44170 19.000
20.49135 13.000
20.54100 21.000
20.59065 19.000
20.64030 13.000
20.68996 16.000
20.73961 17.000
20.78926 16.000
20.83891 24.000
20.88856 13.000
20.93821 21.000
20.98787 23.000
21.03752 19.000
21.08717 15.000
21.13682 18.000
21.18647 17.000
21.23612 21.000
21.28578 21.000
21.33543 22.000
21.38508 18.000
21.43473 17.000
21.48438 18.000
21.53404 14.000
21.58369 23.000
21.63334 26.000
21.68299 23.000
21.73264 28.000
21.78229 12.000
21.83195 16.000
21.88160 21.000
21.93125 18.000
21.98090 16.000
22.03055 23.000
22.08020 26.000
22.12986 17.000
22.17951 19.000
22.22916 17.000
22.27881 18.000
22.32846 17.000
22.37811 21.000
22.42777 15.000
22.47742 24.000
22.52707 23.000
22.57672 16.000
22.62637 29.000
22.67603 29.000
22.72568 15.000
22.77533 17.000
22.82498 17.000
22.87463 25.000
22.92428 22.000
22.97394 26.000
23.02359 20.000
23.07324 21.000
23.12289 13.000
23.17254 22.000
23.22219 19.000
23.27185 23.000
23.32150 28.000
23.37115 15.000
23.42080 17.000
23.47045 25.000
23.52011 15.000
23.56976 26.000
23.61941 19.000
23.66906 23.000
23.71871 29.000
23.76836 23.000
23.81802 16.000
23.86767 26.000
23.91732 37.000
23.96697 51.000
24.01662 72.000
24.06627 52.000
24.11593 37.000
24.16558 38.000
24.21523 37.000
24.26488 25.000
24.31453 30.000
24.36419 16.000
24.41384 24.000
24.46349 24.000
24.51314 19.000
24.56279 29.000
24.61244 24.000
24.66210 19.000
24.71175 16.000
24.76140 15.000
24.81105 27.000
24.86070 20.000
24.91035 19.000
24.96001 17.000
25.00966 27.000
25.05931 16.000
25.10896 12.000
25.15861 19.000
25.20827 23.000
25.25792 10.000
25.30757 15.000
25.35722 18.000
25.40687 22.000
25.45652 17.000
25.50618 21.000
25.55583 24.000
25.60548 18.000
25.65513 29.000
25.70478 23.000
25.75443 22.000
25.80409 26.000
25.85374 22.000
25.90339 12.000
25.95304 15.000
26.00269 18.000
26.05234 20.000
26.10200 22.000
26.15165 19.000
26.20130 17.000
26.25095 17.000
26.30060 23.000
26.35026 17.000
26.39991 18.000
26.44956 15.000
26.49921 20.000
26.54886 19.000
26.59851 29.000
26.64817 27.000
26.69782 13.000
26.74747 20.000
26.79712 15.000
26.84677 20.000
26.89642 17.000
26.94608 18.000
26.99573 19.000
27.04538 18.000
27.09503 18.000
27.14468 19.000
27.19434 16.000
27.24399 25.000
27.29364 18.000
27.34329 19.000
27.39294 22.000
27.44259 12.000
27.49225 27.000
27.54190 22.000
27.59155 18.000
27.64120 22.000
27.69085 19.000
27.74050 19.000
27.79016 19.000
27.83981 23.000
27.88946 26.000
27.93911 27.000
27.98876 26.000
28.03842 16.000
28.08807 27.000
28.13772 23.000
28.18737 24.000
28.23702 20.000
28.28667 22.000
28.33633 24.000
28.38598 20.000
28.43563 32.000
28.48528 24.000
28.53493 23.000
28.58458 30.000
28.63424 20.000
28.68389 16.000
28.73354 20.000
28.78319 18.000
28.83284 23.000
28.88250 12.000
28.93215 20.000
28.98180 27.000
29.03145 21.000
29.08110 21.000
29.13075 23.000
29.18041 16.000
29.23006 26.000
29.27971 20.000
29.32936 19.000
29.37901 17.000
29.42866 20.000
29.47832 24.000
29.52797 18.000
29.57762 17.000
29.62727 25.000
29.67692 27.000
29.72657 17.000
29.77623 23.000
29.82588 17.000
29.87553 20.000
29.92518 22.000
29.97483 17.000
30.02449 25.000
30.07414 18.000
30.12379 23.000
30.17344 12.000
30.22309 22.000
30.27274 28.000
30.32240 24.000
30.37205 26.000
30.42170 17.000
30.47135 19.000
30.52100 26.000
30.57065 23.000
30.62031 18.000
30.66996 21.000
30.71961 20.000
30.76926 23.000
30.81891 15.000
30.86857 14.000
30.91822 18.000
30.96787 18.000
31.01752 20.000
31.06717 13.000
31.11682 21.000
31.16648 17.000
31.21613 21.000
31.26578 16.000
31.31543 23.000
31.36508 24.000
31.41473 26.000
31.46439 17.000
31.51404 23.000
31.56369 21.000
31.61334 31.000
31.66299 28.000
31.71265 15.000
31.76230 31.000
31.81195 21.000
31.86160 18.000
31.91125 25.000
31.96090 25.000
32.01056 19.000
32.06021 24.000
32.10986 22.000
32.15951 29.000
32.20916 27.000
32.25881 25.000
32.30847 30.000
32.35812 17.000
32.40777 26.000
32.45742 35.000
32.50707 31.000
32.55673 31.000
32.60638 28.000
32.65603 32.000
32.70568 40.000
32.75533 48.000
32.80498 59.000
32.85464 84.000
32.90429 141.000
32.95394 218.000
33.00359 254.000
33.05324 291.000
33.10289 258.000
33.15255 164.000
33.20220 127.000
33.25185 89.000
33.30150 63.000
33.35115 34.000
33.40080 38.000
33.45046 30.000
33.50011 37.000
33.54976 27.000
33.59941 35.000
33.64906 24.000
33.69872 31.000
33.74837 35.000
33.79802 30.000
33.84767 24.000
33.89732 29.000
33.94697 20.000
33.99663 14.000
34.04628 18.000
34.09593 24.000
34.14558 28.000
34.19523 28.000
34.24488 24.000
34.29454 26.000
34.34419 21.000
34.39384 22.000
34.44349 29.000
34.49314 26.000
34.54280 28.000
34.59245 19.000
34.64210 23.000
34.69175 18.000
34.74140 35.000
34.79105 26.000
34.84071 29.000
34.89036 17.000
34.94001 26.000
34.98966 27.000
35.03931 23.000
35.08896 40.000
35.13862 29.000
35.18827 33.000
35.23792 47.000
35.28757 45.000
35.33722 73.000
35.38688 120.000
35.43653 182.000
35.48618 229.000
35.53583 213.000
35.58548 206.000
35.63513 138.000
35.68479 95.000
35.73444 47.000
35.78409 56.000
35.83374 47.000
35.88339 49.000
35.93304 29.000
35.98270 33.000
36.03235 34.000
36.08200 23.000
36.13165 17.000
36.18130 27.000
36.23096 25.000
36.28061 22.000
36.33026 30.000
36.37991 26.000
36.42956 24.000
36.47921 20.000
36.52887 37.000
36.57852 21.000
36.62817 30.000
36.67782 19.000
36.72747 24.000
36.77712 21.000
36.82678 27.000
36.87643 22.000
36.92608 18.000
36.97573 24.000
37.02538 19.000
37.07503 15.000
37.12469 21.000
37.17434 21.000
37.22399 22.000
37.27364 25.000
37.32329 16.000
37.37295 24.000
37.42260 23.000
37.47225 28.000
37.52190 23.000
37.57155 26.000
37.62120 21.000
37.67086 11.000
37.72051 25.000
37.77016 19.000
37.81981 12.000
37.86946 23.000
37.91911 26.000
37.96877 24.000
38.01842 20.000
38.06807 21.000
38.11772 21.000
38.16737 23.000
38.21703 28.000
38.26668 19.000
38.31633 20.000
38.36598 23.000
38.41563 27.000
38.46528 23.000
38.51494 24.000
38.56459 26.000
38.61424 22.000
38.66389 25.000
38.71354 24.000
38.76319 22.000
38.81285 17.000
38.86250 24.000
38.91215 29.000
38.96180 28.000
39.01145 18.000
39.06111 23.000
39.11076 34.000
39.16041 34.000
39.21006 24.000
39.25971 33.000
39.30936 26.000
39.35902 28.000
39.40867 17.000
39.45832 23.000
39.50797 23.000
39.55762 21.000
39.60727 26.000
39.65693 23.000
39.70658 18.000
39.75623 26.000
39.80588 27.000
39.85553 31.000
39.90519 25.000
39.95484 27.000
40.00449 27.000
40.05414 24.000
40.10379 28.000
40.15344 24.000
40.20310 24.000
40.25275 30.000
40.30240 30.000
40.35205 27.000
40.40170 39.000
40.45135 29.000
40.50101 31.000
40.55066 39.000
40.60031 62.000
40.64996 74.000
40.69961 117.000
40.74926 100.000
40.79892 112.000
40.84857 73.000
40.89822 60.000
40.94787 49.000
40.99752 41.000
41.04718 30.000
41.09683 18.000
41.14648 33.000
41.19613 31.000
41.24578 15.000
41.29543 21.000
41.34509 24.000
41.39474 17.000
41.44439 24.000
41.49404 25.000
41.54369 19.000
41.59334 20.000
41.64300 13.000
41.69265 28.000
41.74230 31.000
41.79195 26.000
41.84160 37.000
41.89126 18.000
41.94091 24.000
41.99056 25.000
42.04021 25.000
42.08986 28.000
42.13951 28.000
42.18917 22.000
42.23882 34.000
42.28847 28.000
42.33812 34.000
42.38777 28.000
42.43742 20.000
42.48708 24.000
42.53673 24.000
42.58638 26.000
42.63603 21.000
42.68568 26.000
42.73534 31.000
42.78499 34.000
42.83464 15.000
42.88429 28.000
42.93394 34.000
42.98359 24.000
43.03325 25.000
43.08290 30.000
43.13255 24.000
43.18220 32.000
43.23185 38.000
43.28150 29.000
43.33116 29.000
43.38081 32.000
43.43046 35.000
43.48011 26.000
43.52976 34.000
43.57942 26.000
43.62907 23.000
43.67872 23.000
43.72837 21.000
43.77802 26.000
43.82767 33.000
43.87733 34.000
43.92698 21.000
43.97663 23.000
44.02628 33.000
44.07593 23.000
44.12558 19.000
44.17524 27.000
44.22489 24.000
44.27454 27.000
44.32419 29.000
44.37384 29.000
44.42349 22.000
44.47315 23.000
44.52280 24.000
44.57245 22.000
44.62210 29.000
44.67175 20.000
44.72141 26.000
44.77106 33.000
44.82071 28.000
44.87036 28.000
44.92001 30.000
44.96966 28.000
45.01932 34.000
45.06897 23.000
45.11862 32.000
45.16827 27.000
45.21792 25.000
45.26757 23.000
45.31723 29.000
45.36688 27.000
45.41653 30.000
45.46618 21.000
45.51583 19.000
45.56549 33.000
45.61514 25.000
45.66479 17.000
45.71444 25.000
45.76409 24.000
45.81374 20.000
45.86340 24.000
45.91305 30.000
45.96270 19.000
46.01235 24.000
46.06200 35.000
46.11165 33.000
46.16131 24.000
46.21096 24.000
46.26061 34.000
46.31026 17.000
46.35991 22.000
46.40957 34.000
46.45922 26.000
46.50887 26.000
46.55852 36.000
46.60817 25.000
46.65782 25.000
46.70748 20.000
46.75713 30.000
46.80678 27.000
46.85643 31.000
46.90608 37.000
46.95573 25.000
47.00539 28.000
47.05504 34.000
47.10469 25.000
47.15434 33.000
47.20399 35.000
47.25365 24.000
47.30330 31.000
47.35295 22.000
47.40260 21.000
47.45225 23.000
47.50190 28.000
47.55156 26.000
47.60121 22.000
47.65086 23.000
47.70051 25.000
47.75016 24.000
47.79981 23.000
47.84947 31.000
47.89912 35.000
47.94877 30.000
47.99842 36.000
48.04807 27.000
48.09772 25.000
48.14738 32.000
48.19703 34.000
48.24668 37.000
48.29633 26.000
48.34598 42.000
48.39564 33.000
48.44529 32.000
48.49494 26.000
48.54459 28.000
48.59424 35.000
48.64389 21.000
48.69355 32.000
48.74320 25.000
48.79285 38.000
48.84250 36.000
48.89215 38.000
48.94180 27.000
48.99146 38.000
49.04111 61.000
49.09076 53.000
49.14041 58.000
49.19006 98.000
49.23972 139.000
49.28937 184.000
49.33902 160.000
49.38867 185.000
49.43832 171.000
49.48797 112.000
49.53763 95.000
49.58728 74.000
49.63693 42.000
49.68658 43.000
49.73623 37.000
49.78588 38.000
49.83554 44.000
49.88519 37.000
49.93484 34.000
49.98449 38.000
50.03414 32.000
50.08380 35.000
50.13345 33.000
50.18310 28.000
50.23275 34.000
50.28240 32.000
50.33205 29.000
50.38171 35.000
50.43136 28.000
50.48101 36.000
50.53066 30.000
50.58031 33.000
50.62996 48.000
50.67962 35.000
50.72927 28.000
50.77892 28.000
50.82857 28.000
50.87822 31.000
50.92788 33.000
50.97753 29.000
51.02718 30.000
51.07683 36.000
51.12648 25.000
51.17613 36.000
51.22579 32.000
51.27544 35.000
51.32509 39.000
51.37474 40.000
51.42439 31.000
51.47404 31.000
51.52370 38.000
51.57335 44.000
51.62300 30.000
51.67265 25.000
51.72230 41.000
51.77195 34.000
51.82161 45.000
51.87126 40.000
51.92091 35.000
51.97056 29.000
52.02021 44.000
52.06987 31.000
52.11952 39.000
52.16917 28.000
52.21882 43.000
52.26847 31.000
52.31812 34.000
52.36778 31.000
52.41743 34.000
52.46708 44.000
52.51673 43.000
52.56638 38.000
52.61603 36.000
52.66569 44.000
52.71534 32.000
52.76499 33.000
52.81464 42.000
52.86429 36.000
52.91395 45.000
52.96360 43.000
53.01325 32.000
53.06290 30.000
53.11255 41.000
53.16220 42.000
53.21186 44.000
53.26151 41.000
53.31116 33.000
53.36081 38.000
53.41046 42.000
53.46011 47.000
53.50977 49.000
53.55942 48.000
53.60907 40.000
53.65872 66.000
53.70837 98.000
53.75803 100.000
53.80768 135.000
53.85733 187.000
53.90698 241.000
53.95663 243.000
54.00628 253.000
54.05594 190.000
54.10559 173.000
54.15524 124.000
54.20489 97.000
54.25454 53.000
54.30419 66.000
54.35385 58.000
54.40350 60.000
54.45315 44.000
54.50280 59.000
54.55245 35.000
54.60211 37.000
54.65176 34.000
54.70141 55.000
54.75106 37.000
54.80071 58.000
54.85036 45.000
54.90002 57.000
54.94967 45.000
54.99932 40.000
55.04897 42.000
55.09862 42.000
55.14827 43.000
55.19793 39.000
55.24758 36.000
55.29723 46.000
55.34688 50.000
55.39653 36.000
55.44618 52.000
55.49584 36.000
55.54549 41.000
55.59514 52.000
55.64479 39.000
55.69444 41.000
55.74410 57.000
55.79375 46.000
55.84340 40.000
55.89305 43.000
55.94270 37.000
55.99235 43.000
56.04201 56.000
56.09166 43.000
56.14131 46.000
56.19096 44.000
56.24061 36.000
56.29026 47.000
56.33992 45.000
56.38957 34.000
56.43922 36.000
56.48887 45.000
56.53852 53.000
56.58818 33.000
56.63783 46.000
56.68748 49.000
56.73713 40.000
56.78678 49.000
56.83643 36.000
56.88609 50.000
56.93574 50.000
56.98539 42.000
57.03504 46.000
57.08469 49.000
57.13434 59.000
57.18400 43.000
57.23365 49.000
57.28330 50.000
57.33295 71.000
57.38260 92.000
57.43226 105.000
57.48191 103.000
57.53156 69.000
57.58121 82.000
57.63086 71.000
57.68051 74.000
57.73017 65.000
57.77982 56.000
57.82947 59.000
57.87912 51.000
57.92877 52.000
57.97842 49.000
58.02808 46.000
58.07773 42.000
58.12738 46.000
58.17703 35.000
58.22668 52.000
58.27634 35.000
58.32599 42.000
58.37564 42.000
58.42529 47.000
58.47494 31.000
58.52459 35.000
58.57425 48.000
58.62390 46.000
58.67355 59.000
58.72320 44.000
58.77285 45.000
58.82250 43.000
58.87216 38.000
58.92181 40.000
58.97146 50.000
59.02111 40.000
59.07076 37.000
59.12041 43.000
59.17007 50.000
59.21972 45.000
59.26937 48.000
59.31902 43.000
59.36867 39.000
59.41833 52.000
59.46798 43.000
59.51763 41.000
59.56728 46.000
59.61693 42.000
59.66658 53.000
59.71624 42.000
59.76589 50.000
59.81554 50.000
59.86519 43.000
59.91484 56.000
59.96449 48.000
60.01415 53.000
60.06380 47.000
60.11345 45.000
60.16310 43.000
60.21275 50.000
60.26241 47.000
60.31206 50.000
60.36171 49.000
60.41136 42.000
60.46101 47.000
60.51066 58.000
60.56032 40.000
60.60997 36.000
60.65962 43.000
60.70927 40.000
60.75892 47.000
60.80857 41.000
60.85823 51.000
60.90788 56.000
60.95753 41.000
61.00718 47.000
61.05683 42.000
61.10649 48.000
61.15614 44.000
61.20579 50.000
61.25544 39.000
61.30509 50.000
61.35474 39.000
61.40440 42.000
61.45405 47.000
61.50370 47.000
61.55335 47.000
61.60300 56.000
61.65265 57.000
61.70231 47.000
61.75196 39.000
61.80161 59.000
61.85126 52.000
61.90091 47.000
61.95057 57.000
62.00022 69.000
62.04987 76.000
62.09952 89.000
62.14917 102.000
62.19882 145.000
62.24848 163.000
62.29813 208.000
62.34778 209.000
62.39743 190.000
62.44708 160.000
62.49673 137.000
62.54639 104.000
62.59604 97.000
62.64569 68.000
62.69534 54.000
62.74499 49.000
62.79465 52.000
62.84430 46.000
62.89395 50.000
62.94360 40.000
62.99325 54.000
63.04290 58.000
63.09256 54.000
63.14221 43.000
63.19186 46.000
63.24151 45.000
63.29116 55.000
63.34081 53.000
63.39047 53.000
63.44012 55.000
63.48977 54.000
63.53942 74.000
63.58907 69.000
63.63872 61.000
63.68838 100.000
63.73803 104.000
63.78768 154.000
63.83733 180.000
63.88698 211.000
63.93664 185.000
63.98629 182.000
64.03594 162.000
64.08559 123.000
64.13524 105.000
64.18489 91.000
64.23455 62.000
64.28420 56.000
64.33385 45.000
64.38350 49.000
64.43315 56.000
64.48280 49.000
64.53246 34.000
64.58211 46.000
64.63176 36.000
64.68141 55.000
64.73106 53.000
64.78072 59.000
64.83037 39.000
64.88002 51.000
64.92967 41.000
64.97932 50.000
65.02897 60.000
65.07863 40.000
65.12828 52.000
65.17793 52.000
65.22758 57.000
65.27723 36.000
65.32688 37.000
65.37654 38.000
65.42619 34.000
65.47584 51.000
65.52549 46.000
65.57514 40.000
65.62480 47.000
65.67445 31.000
65.72410 40.000
65.77375 46.000
65.82340 42.000
65.87305 49.000
65.92271 36.000
65.97236 57.000
66.02201 40.000
66.07166 41.000
66.12131 31.000
66.17096 59.000
66.22062 29.000
66.27027 38.000
66.31992 37.000
66.36957 54.000
66.41922 44.000
66.46888 51.000
66.51853 51.000
66.56818 38.000
66.61783 44.000
66.66748 44.000
66.71713 47.000
66.76679 34.000
66.81644 40.000
66.86609 31.000
66.91574 46.000
66.96539 48.000
67.01504 54.000
67.06470 40.000
67.11435 47.000
67.16400 39.000
67.21365 48.000
67.26330 46.000
67.31295 41.000
67.36261 33.000
67.41226 39.000
67.46191 31.000
67.51156 48.000
67.56121 52.000
67.61087 38.000
67.66052 47.000
67.71017 40.000
67.75982 38.000
67.80947 51.000
67.85912 52.000
67.90878 44.000
67.95843 39.000
68.00808 36.000
68.05773 32.000
68.10738 45.000
68.15703 44.000
68.20669 33.000
68.25634 49.000
68.30599 47.000
68.35564 49.000
68.40529 50.000
68.45495 24.000
68.50460 49.000
68.55425 48.000
68.60390 35.000
68.65355 37.000
68.70320 51.000
68.75286 37.000
68.80251 38.000
68.85216 45.000
68.90181 47.000
68.95146 38.000
69.00111 37.000
69.05077 36.000
69.10042 49.000
69.15007 39.000
69.19972 48.000
69.24937 57.000
69.29903 38.000
69.34868 44.000
69.39833 51.000
69.44798 57.000
69.49763 56.000
69.54728 55.000
69.59694 46.000
69.64659 57.000
69.69624 47.000
69.74589 47.000
69.79554 51.000
69.84519 59.000
69.89485 35.000
69.94450 35.000
69.99415 44.000
70.04380 40.000
70.09345 31.000
70.14311 41.000
70.19276 49.000
70.24241 39.000
70.29206 50.000
70.34171 39.000
70.39136 37.000
70.44102 54.000
70.49067 51.000
70.54032 51.000
70.58997 38.000
70.63962 27.000
70.68927 49.000
70.73893 34.000
70.78858 40.000
70.83823 34.000
70.88788 42.000
70.93753 38.000
70.98718 47.000
71.03684 36.000
71.08649 25.000
71.13614 51.000
71.18579 48.000
71.23544 52.000
71.28510 48.000
71.33475 36.000
71.38440 51.000
71.43405 44.000
71.48370 56.000
71.53335 64.000
71.58301 60.000
71.63266 63.000
71.68231 70.000
71.73196 79.000
71.78161 101.000
71.83126 89.000
71.88092 95.000
71.93057 84.000
71.98022 83.000
72.02987 84.000
72.07952 74.000
72.12918 75.000
72.17883 59.000
72.22848 54.000
72.27813 51.000
72.32778 52.000
72.37743 52.000
72.42709 46.000
72.47674 47.000
72.52639 45.000
72.57604 49.000
72.62569 42.000
72.67534 35.000
72.72500 40.000
72.77465 46.000
72.82430 45.000
72.87395 37.000
72.92360 36.000
72.97326 37.000
73.02291 48.000
73.07256 40.000
73.12221 39.000
73.17186 44.000
73.22151 41.000
73.27117 45.000
73.32082 36.000
73.37047 41.000
73.42012 32.000
73.46977 29.000
73.51942 48.000
73.56908 45.000
73.61873 44.000
73.66838 40.000
73.71803 33.000
73.76768 42.000
73.81734 41.000
73.86699 46.000
73.91664 36.000
73.96629 29.000
74.01594 36.000
74.06559 43.000
74.11525 55.000
74.16490 35.000
74.21455 52.000
74.26420 54.000
74.31385 41.000
74.36350 36.000
74.41316 42.000
74.46281 47.000
74.51246 35.000
74.56211 39.000
74.61176 29.000
74.66141 38.000
74.71107 27.000
74.76072 48.000
74.81037 38.000
74.86002 55.000
74.90967 36.000
74.95933 42.000
75.00898 44.000
75.05863 44.000
75.10828 49.000
75.15793 48.000
75.20758 59.000
75.25724 56.000
75.30689 67.000
75.35654 82.000
75.40619 71.000
75.45584 70.000
75.50549 65.000
75.55515 63.000
75.60480 51.000
75.65445 51.000
75.70410 47.000
75.75375 59.000
75.80341 46.000
75.85306 38.000
75.90271 54.000
75.95236 44.000
76.00201 40.000
76.05166 38.000
76.10132 25.000
76.15097 39.000
76.20062 54.000
76.25027 36.000
76.29992 31.000
76.34957 31.000
76.39923 34.000
76.44888 37.000
76.49853 33.000
76.54818 41.000
76.59783 38.000
76.64749 39.000
76.69714 43.000
76.74679 34.000
76.79644 33.000
76.84609 41.000
76.89574 21.000
76.94540 38.000
76.99505 35.000
77.04470 44.000
77.09435 38.000
77.14400 36.000
77.19365 34.000
77.24331 39.000
77.29296 40.000
77.34261 32.000
77.39226 42.000
77.44191 36.000
77.49157 46.000
77.54122 51.000
77.59087 37.000
77.64052 41.000
77.69017 55.000
77.73982 39.000
77.78948 55.000
77.83913 39.000
77.88878 35.000
77.93843 33.000
77.98808 40.000
78.03773 31.000
78.08739 46.000
78.13704 42.000
78.18669 60.000
78.23634 35.000
78.28599 31.000
78.33564 44.000
78.38530 36.000
78.43495 38.000
78.48460 49.000
78.53425 35.000
78.58390 41.000
78.63356 50.000
78.68321 42.000
78.73286 34.000
78.78251 36.000
78.83216 37.000
78.88181 44.000
78.93147 38.000
78.98112 37.000
79.03077 37.000
79.08042 36.000
79.13007 39.000
79.17972 42.000
79.22938 34.000
79.27903 27.000
79.32868 33.000
79.37833 34.000
79.42798 35.000
79.47764 30.000
79.52729 44.000
79.57694 30.000
79.62659 39.000
79.67624 40.000
79.72589 23.000
79.77555 35.000
79.82520 32.000
79.87485 27.000
79.92450 46.000
79.97415 30.000
80.02380 38.000
