20.00010 9059.000
20.10061 8957.000
20.20111 8899.000
20.30162 9396.000
20.40213 11815.000
20.50263 15149.000
20.60314 16946.000
20.70365 16859.000
20.80416 16429.000
20.90466 15545.000
21.00517 15429.000
21.10568 14639.000
21.20618 14183.000
21.30669 13770.000
21.40720 13450.000
21.50770 13067.000
21.60821 12698.000
21.70872 12231.000
21.80922 11736.000
21.90973 11500.000
22.01024 11072.000
22.11074 10716.000
22.21125 10155.000
22.31176 9805.000
22.41227 9743.000
22.51277 9665.000
22.61328 9380.000
22.71379 9195.000
22.81429 9417.000
22.91480 9434.000
23.01531 9301.000
23.11581 9249.000
23.21632 9262.000
23.31683 9247.000
23.41733 9138.000
23.51784 9033.000
23.61835 9332.000
23.71885 9147.000
23.81936 9133.000
23.91987 9120.000
24.02038 9101.000
24.12088 8985.000
24.22139 8691.000
24.32190 8838.000
24.42240 8822.000
24.52291 8561.000
24.62342 8529.000
24.72392 8436.000
24.82443 8185.000
24.92494 8104.000
25.02544 7922.000
25.12595 7766.000
25.22646 7849.000
25.32696 7512.000
25.42747 7447.000
25.52798 7368.000
25.62849 7414.000
25.72899 7340.000
25.82950 7314.000
25.93001 7206.000
26.03051 7075.000
26.13102 7070.000
26.23153 7024.000
26.33203 6929.000
26.43254 7122.000
26.53305 6962.000
26.63355 7194.000
26.73406 7093.000
26.83457 7013.000
26.93507 7145.000
27.03558 7215.000
27.13609 7516.000
27.23660 7553.000
27.33710 7764.000
27.43761 8216.000
27.53812 8454.000
27.63862 8963.000
27.73913 9593.000
27.83964 10330.000
27.94014 11190.000
28.04065 12106.000
28.14116 13314.000
28.24166 14353.000
28.34217 15388.000
28.44268 16143.000
28.54319 16740.000
28.64369 16357.000
28.74420 15854.000
28.84471 15098.000
28.94521 13687.000
29.04572 12371.000
29.14623 11313.000
29.24673 9946.000
29.34724 9130.000
29.44775 8279.000
29.54825 7771.000
29.64876 7306.000
29.74927 6634.000
29.84977 6420.000
29.95028 6139.000
30.05079 5983.000
30.15130 5719.000
30.25180 5454.000
30.35231 5069.000
30.45282 4741.000
30.55332 4524.000
30.65383 4215.000
30.75434 3876.000
30.85484 3642.000
30.95535 3372.000
31.05586 3270.000
31.15636 3129.000
31.25687 3175.000
31.35738 3108.000
31.45788 3110.000
31.55839 3014.000
31.65890 3137.000
31.75941 3161.000
31.85991 3160.000
31.96042 3271.000
32.06093 3348.000
32.16143 3247.000
32.26194 3364.000
32.36245 3638.000
32.46295 3949.000
32.56346 4237.000
32.66397 4539.000
32.76447 4917.000
32.86498 5284.000
32.96549 5692.000
33.06599 5848.000
33.16650 5861.000
33.26701 5661.000
33.36752 5424.000
33.46802 4840.000
33.56853 4667.000
33.66904 4399.000
33.76954 4391.000
33.87005 4312.000
33.97056 4400.000
34.07106 4147.000
34.17157 4403.000
34.27208 4348.000
34.37258 4477.000
34.47309 4317.000
34.57360 4243.000
34.67411 4225.000
34.77461 4080.000
34.87512 4081.000
34.97563 3955.000
35.07613 3796.000
35.17664 3865.000
35.27715 3709.000
35.37765 3785.000
35.47816 3702.000
35.57867 3577.000
35.67917 3580.000
35.77968 3377.000
35.88019 3443.000
35.98069 3298.000
36.08120 3268.000
36.18171 3294.000
36.28222 3121.000
36.38272 3177.000
36.48323 3135.000
36.58374 3075.000
36.68424 3075.000
36.78475 3022.000
36.88526 2836.000
36.98576 2882.000
37.08627 2845.000
37.18678 2916.000
37.28728 2953.000
37.38779 2754.000
37.48830 2929.000
37.58880 2882.000
37.68931 2866.000
37.78982 2839.000
37.89033 2769.000
37.99083 2839.000
38.09134 2719.000
38.19185 2687.000
38.29235 2720.000
38.39286 2698.000
38.49337 2661.000
38.59387 2603.000
38.69438 2681.000
38.79489 2651.000
38.89539 2497.000
38.99590 2377.000
39.09641 2368.000
39.19691 2240.000
39.29742 2101.000
39.39793 1951.000
39.49844 1816.000
39.59894 1849.000
39.69945 1659.000
39.79996 1561.000
39.90046 1554.000
40.00097 1520.000
40.10148 1405.000
40.20198 1385.000
40.30249 1414.000
40.40300 1450.000
40.50350 1360.000
40.60401 1381.000
40.70452 1303.000
40.80502 1277.000
40.90553 1303.000
41.00604 1306.000
41.10655 1357.000
41.20705 1355.000
41.30756 1262.000
41.40807 1295.000
41.50857 1225.000
41.60908 1326.000
41.70959 1292.000
41.81009 1320.000
41.91060 1310.000
42.01111 1306.000
42.11161 1311.000
42.21212 1247.000
42.31263 1257.000
42.41314 1303.000
42.51364 1224.000
42.61415 1281.000
42.71466 1285.000
42.81516 1312.000
42.91567 1314.000
43.01618 1285.000
43.11668 1292.000
43.21719 1222.000
43.31770 1229.000
43.41820 1303.000
43.51871 1288.000
43.61922 1222.000
43.71972 1246.000
43.82023 1200.000
43.92074 1197.000
44.02125 1280.000
44.12175 1264.000
44.22226 1343.000
44.32277 1222.000
44.42327 1255.000
44.52378 1315.000
44.62429 1295.000
44.72479 1442.000
44.82530 1342.000
44.92581 1354.000
45.02631 1382.000
45.12682 1407.000
45.22733 1405.000
45.32783 1450.000
45.42834 1581.000
45.52885 1678.000
45.62936 1710.000
45.72986 1801.000
45.83037 1883.000
45.93088 2016.000
46.03138 2091.000
46.13189 2209.000
46.23240 2465.000
46.33290 2605.000
46.43341 2813.000
46.53392 3043.000
46.63442 3388.000
46.73493 3570.000
46.83544 3971.000
46.93594 4304.000
47.03645 4748.000
47.13696 5234.000
47.23747 5325.000
47.33797 5652.000
47.43848 5599.000
47.53899 5714.000
47.63949 5600.000
47.74000 5317.000
47.84051 5147.000
47.94101 4762.000
48.04152 4272.000
48.14203 3959.000
48.24253 3546.000
48.34304 3274.000
48.44355 3015.000
48.54406 2756.000
48.64456 2443.000
48.74507 2383.000
48.84558 2125.000
48.94608 2044.000
49.04659 1901.000
49.14710 1805.000
49.24760 1708.000
49.34811 1535.000
49.44862 1537.000
49.54912 1460.000
49.64963 1477.000
49.75014 1402.000
49.85064 1362.000
49.95115 1326.000
50.05166 1269.000
50.15217 1221.000
50.25267 1221.000
50.35318 1208.000
50.45369 1131.000
50.55419 1197.000
50.65470 1215.000
50.75521 1187.000
50.85571 1229.000
50.95622 1060.000
51.05673 1170.000
51.15723 1091.000
51.25774 1132.000
51.35825 1073.000
51.45875 1107.000
51.55926 1064.000
51.65977 1080.000
51.76028 1058.000
51.86078 1070.000
51.96129 1036.000
52.06180 1038.000
52.16230 1055.000
52.26281 1058.000
52.36332 1078.000
52.46382 1081.000
52.56433 1049.000
52.66484 1133.000
52.76534 1066.000
52.86585 1057.000
52.96636 1061.000
53.06686 1043.000
53.16737 1045.000
53.26788 1118.000
53.36839 1102.000
53.46889 1104.000
53.56940 1119.000
53.66991 1199.000
53.77041 1157.000
53.87092 1221.000
53.97143 1182.000
54.07193 1231.000
54.17244 1311.000
54.27295 1361.000
54.37345 1335.000
54.47396 1397.000
54.57447 1475.000
54.67497 1595.000
54.77548 1619.000
54.87599 1790.000
54.97650 1880.000
55.07700 2001.000
55.17751 2103.000
55.27802 2344.000
55.37852 2517.000
55.47903 2701.000
55.57954 2910.000
55.68004 3233.000
55.78055 3404.000
55.88106 3618.000
55.98156 3819.000
56.08207 3976.000
56.18258 4187.000
56.28309 4326.000
56.38359 4133.000
56.48410 4072.000
56.58461 4056.000
56.68511 3839.000
56.78562 3704.000
56.88613 3510.000
56.98663 3115.000
57.08714 2990.000
57.18765 2761.000
57.28815 2487.000
57.38866 2273.000
57.48917 2089.000
57.58967 2135.000
57.69018 1854.000
57.79069 1812.000
57.89120 1628.000
57.99170 1657.000
58.09221 1631.000
58.19272 1542.000
58.29322 1601.000
58.39373 1548.000
58.49424 1501.000
58.59474 1498.000
58.69525 1530.000
58.79576 1531.000
58.89626 1498.000
58.99677 1406.000
59.09728 1423.000
59.19778 1454.000
59.29829 1440.000
59.39880 1342.000
59.49931 1423.000
59.59981 1323.000
59.70032 1270.000
59.80083 1201.000
59.90133 1198.000
60.00184 1128.000
60.10235 1141.000
60.20285 1073.000
60.30336 1037.000
60.40387 1005.000
60.50437 930.000
60.60488 957.000
60.70539 990.000
60.80589 939.000
60.90640 875.000
61.00691 916.000
61.10742 899.000
61.20792 882.000
61.30843 873.000
61.40894 897.000
61.50944 804.000
61.60995 839.000
61.71046 792.000
61.81096 754.000
61.91147 799.000
62.01198 812.000
62.11248 803.000
62.21299 787.000
62.31350 724.000
62.41401 754.000
62.51451 774.000
62.61502 757.000
62.71553 763.000
62.81603 672.000
62.91654 736.000
63.01705 699.000
63.11755 721.000
63.21806 784.000
63.31857 721.000
63.41907 679.000
63.51958 657.000
63.62009 681.000
63.72059 726.000
63.82110 706.000
63.92161 721.000
64.02212 725.000
64.12262 665.000
64.22313 740.000
64.32364 683.000
64.42414 634.000
64.52465 674.000
64.62516 738.000
64.72566 682.000
64.82617 655.000
64.92668 720.000
65.02718 695.000
65.12769 694.000
65.22820 718.000
65.32870 669.000
65.42921 686.000
65.52972 653.000
65.63023 677.000
65.73073 714.000
65.83124 683.000
65.93175 656.000
66.03225 738.000
66.13276 739.000
66.23327 788.000
66.33377 747.000
66.43428 722.000
66.53479 739.000
66.63529 720.000
66.73580 773.000
66.83631 714.000
66.93681 726.000
67.03732 660.000
67.13783 714.000
67.23834 699.000
67.33884 760.000
67.43935 729.000
67.53986 703.000
67.64036 765.000
67.74087 779.000
67.84138 772.000
67.94188 818.000
68.04239 869.000
68.14290 897.000
68.24340 915.000
68.34391 960.000
68.44442 924.000
68.54492 963.000
68.64543 1059.000
68.74594 1108.000
68.84645 1094.000
68.94695 1213.000
69.04746 1207.000
69.14797 1220.000
69.24847 1283.000
69.34898 1323.000
69.44949 1329.000
69.54999 1235.000
69.65050 1232.000
69.75101 1235.000
69.85151 1174.000
69.95202 1085.000
70.05253 1098.000
70.15304 1011.000
70.25354 1000.000
70.35405 944.000
70.45456 888.000
70.55506 847.000
70.65557 835.000
70.75608 854.000
70.85658 764.000
70.95709 743.000
71.05760 724.000
71.15810 784.000
71.25861 726.000
71.35912 701.000
71.45962 692.000
71.56013 680.000
71.66064 745.000
71.76115 676.000
71.86165 681.000
71.96216 691.000
72.06267 683.000
72.16317 672.000
72.26368 698.000
72.36419 655.000
72.46469 667.000
72.56520 696.000
72.66571 662.000
72.76621 675.000
72.86672 689.000
72.96723 686.000
73.06773 655.000
73.16824 670.000
73.26875 702.000
73.36926 659.000
73.46976 673.000
73.57027 715.000
73.67078 794.000
73.77128 791.000
73.87179 739.000
73.97230 713.000
74.07280 813.000
74.17331 755.000
74.27382 796.000
74.37432 821.000
74.47483 874.000
74.57534 839.000
74.67584 793.000
74.77635 911.000
74.87686 923.000
74.97737 945.000
75.07787 970.000
75.17838 1025.000
75.27889 1029.000
75.37939 1147.000
75.47990 1119.000
75.58041 1178.000
75.68091 1266.000
75.78142 1247.000
75.88193 1364.000
75.98243 1346.000
76.08294 1391.000
76.18345 1483.000
76.28396 1474.000
76.38446 1534.000
76.48497 1573.000
76.58548 1613.000
76.68598 1563.000
76.78649 1601.000
76.88700 1601.000
76.98750 1633.000
77.08801 1644.000
77.18852 1655.000
77.28902 1584.000
77.38953 1549.000
77.49004 1537.000
77.59054 1508.000
77.69105 1446.000
77.79156 1395.000
77.89207 1402.000
77.99257 1422.000
78.09308 1396.000
78.19359 1399.000
78.29409 1411.000
78.39460 1456.000
78.49511 1444.000
78.59561 1339.000
78.69612 1423.000
78.79663 1437.000
78.89713 1475.000
78.99764 1369.000
79.09815 1380.000
79.19865 1392.000
79.29916 1350.000
79.39967 1325.000
79.50018 1324.000
79.60068 1248.000
79.70119 1153.000
79.80170 1199.000
79.90220 1122.000
80.00271 1055.000
80.10322 1004.000
80.20372 1019.000
80.30423 972.000
80.40474 954.000
80.50524 935.000
80.60575 847.000
80.70626 855.000
80.80676 862.000
80.90727 834.000
81.00778 840.000
81.10829 799.000
81.20879 770.000
81.30930 728.000
81.40981 720.000
81.51031 769.000
81.61082 721.000
81.71133 699.000
81.81183 699.000
81.91234 724.000
82.01285 697.000
82.11335 676.000
82.21386 702.000
82.31437 684.000
82.41487 643.000
82.51538 647.000
82.61589 691.000
82.71640 711.000
82.81690 663.000
82.91741 683.000
83.01792 623.000
83.11842 640.000
83.21893 640.000
83.31944 694.000
83.41994 646.000
83.52045 673.000
83.62096 664.000
83.72146 619.000
83.82197 653.000
83.92248 625.000
84.02299 629.000
84.12349 622.000
84.22400 710.000
84.32451 662.000
84.42501 648.000
84.52552 688.000
84.62603 644.000
84.72653 636.000
84.82704 711.000
84.92755 680.000
85.02805 678.000
85.12856 691.000
85.22907 662.000
85.32957 759.000
85.43008 718.000
85.53059 705.000
85.63110 778.000
85.73160 753.000
85.83211 751.000
85.93262 801.000
86.03312 779.000
86.13363 833.000
86.23414 820.000
86.33464 865.000
86.43515 821.000
86.53566 825.000
86.63616 930.000
86.73667 852.000
86.83718 942.000
86.93768 965.000
87.03819 1045.000
87.13870 1011.000
87.23921 1031.000
87.33971 1058.000
87.44022 1144.000
87.54073 1167.000
87.64123 1192.000
87.74174 1176.000
87.84225 1223.000
87.94275 1291.000
88.04326 1287.000
88.14377 1297.000
88.24427 1336.000
88.34478 1459.000
88.44529 1328.000
88.54579 1278.000
88.64630 1322.000
88.74681 1221.000
88.84732 1257.000
88.94782 1243.000
89.04833 1241.000
89.14884 1214.000
89.24934 1217.000
89.34985 1106.000
89.45036 1038.000
89.55086 1028.000
89.65137 1043.000
89.75188 979.000
89.85238 984.000
89.95289 948.000
90.05340 912.000
90.15391 907.000
90.25441 875.000
90.35492 853.000
90.45543 829.000
90.55593 816.000
90.65644 819.000
90.75695 816.000
90.85745 740.000
90.95796 759.000
91.05847 742.000
91.15897 773.000
91.25948 716.000
91.35999 736.000
91.46049 782.000
91.56100 752.000
91.66151 734.000
91.76202 708.000
91.86252 743.000
91.96303 725.000
92.06354 759.000
92.16404 760.000
92.26455 698.000
92.36506 772.000
92.46556 739.000
92.56607 727.000
92.66658 724.000
92.76708 753.000
92.86759 794.000
92.96810 795.000
93.06860 755.000
93.16911 855.000
93.26962 798.000
93.37013 893.000
93.47063 833.000
93.57114 868.000
93.67165 886.000
93.77215 928.000
93.87266 935.000
93.97317 942.000
94.07367 992.000
94.17418 1024.000
94.27469 1031.000
94.37519 1057.000
94.47570 1145.000
94.57621 1116.000
94.67671 1141.000
94.77722 1179.000
94.87773 1174.000
94.97824 1160.000
95.07874 1268.000
95.17925 1198.000
95.27976 1219.000
95.38026 1265.000
95.48077 1332.000
95.58128 1192.000
95.68178 1252.000
95.78229 1181.000
95.88280 1208.000
95.98330 1197.000
96.08381 1164.000
96.18432 1092.000
96.28482 1083.000
96.38533 1108.000
96.48584 1004.000
96.58635 974.000
96.68685 989.000
96.78736 941.000
96.88787 904.000
96.98837 872.000
97.08888 814.000
97.18939 822.000
97.28989 794.000
97.39040 781.000
97.49091 742.000
97.59141 747.000
97.69192 743.000
97.79243 727.000
97.89294 678.000
97.99344 718.000
98.09395 641.000
98.19446 634.000
98.29496 644.000
98.39547 698.000
98.49598 729.000
98.59648 660.000
98.69699 626.000
98.79750 621.000
98.89800 598.000
98.99851 617.000
99.09902 607.000
99.19952 622.000
99.30003 627.000
99.40054 635.000
99.50105 629.000
99.60155 627.000
99.70206 554.000
99.80257 641.000
99.90307 608.000
100.00358 621.000
100.10409 618.000
100.20459 586.000
100.30510 567.000
100.40561 575.000
100.50611 607.000
100.60662 613.000
100.70713 575.000
100.80763 613.000
100.90814 569.000
101.00865 547.000
101.10916 558.000
101.20966 573.000
101.31017 593.000
101.41068 587.000
101.51118 535.000
101.61169 595.000
101.71220 580.000
101.81270 537.000
101.91321 577.000
102.01372 617.000
102.11422 544.000
102.21473 571.000
102.31524 574.000
102.41574 563.000
102.51625 575.000
102.61676 584.000
102.71727 577.000
102.81777 574.000
102.91828 565.000
103.01879 630.000
103.11929 585.000
103.21980 627.000
103.32031 603.000
103.42081 607.000
103.52132 625.000
103.62183 657.000
103.72233 610.000
103.82284 645.000
103.92335 653.000
104.02386 655.000
104.12436 622.000
104.22487 613.000
104.32538 653.000
104.42588 582.000
104.52639 645.000
104.62690 659.000
104.72740 658.000
104.82791 656.000
104.92842 643.000
105.02892 675.000
105.12943 664.000
105.22994 691.000
105.33044 714.000
105.43095 705.000
105.53146 725.000
105.63197 683.000
105.73247 753.000
105.83298 747.000
105.93349 740.000
106.03399 747.000
106.13450 742.000
106.23501 786.000
106.33551 811.000
106.43602 852.000
106.53653 794.000
106.63703 770.000
106.73754 885.000
106.83805 808.000
106.93855 819.000
107.03906 812.000
107.13957 861.000
107.24008 785.000
107.34058 814.000
107.44109 809.000
107.54160 827.000
107.64210 829.000
107.74261 813.000
107.84312 853.000
107.94362 803.000
108.04413 816.000
108.14464 817.000
108.24514 800.000
108.34565 832.000
108.44616 849.000
108.54666 763.000
108.64717 804.000
108.74768 777.000
108.84819 780.000
108.94869 794.000
109.04920 769.000
109.14971 767.000
109.25021 740.000
109.35072 755.000
109.45123 713.000
109.55173 756.000
109.65224 731.000
109.75275 738.000
109.85325 784.000
109.95376 750.000
110.05427 791.000
110.15477 730.000
110.25528 746.000
110.35579 781.000
110.45630 793.000
110.55680 728.000
110.65731 823.000
110.75782 803.000
110.85832 806.000
110.95883 740.000
111.05934 779.000
111.15984 812.000
111.26035 826.000
111.36086 805.000
111.46136 862.000
111.56187 856.000
111.66238 839.000
111.76289 871.000
111.86339 841.000
111.96390 868.000
112.06441 879.000
112.16491 885.000
112.26542 936.000
112.36593 929.000
112.46643 977.000
112.56694 998.000
112.66745 1048.000
112.76795 1027.000
112.86846 1040.000
112.96897 1047.000
113.06947 1066.000
113.16998 1132.000
113.27049 1092.000
113.37100 1171.000
113.47150 1112.000
113.57201 1162.000
113.67252 1240.000
113.77302 1266.000
113.87353 1311.000
113.97404 1261.000
114.07454 1326.000
114.17505 1317.000
114.27556 1336.000
114.37606 1311.000
114.47657 1308.000
114.57708 1345.000
114.67758 1386.000
114.77809 1357.000
114.87860 1372.000
114.97911 1388.000
115.07961 1376.000
115.18012 1346.000
115.28063 1351.000
115.38113 1414.000
115.48164 1309.000
115.58215 1378.000
115.68265 1335.000
115.78316 1343.000
115.88367 1336.000
115.98417 1320.000
116.08468 1315.000
116.18519 1304.000
116.28569 1227.000
116.38620 1309.000
116.48671 1228.000
116.58722 1242.000
116.68772 1228.000
116.78823 1236.000
116.88874 1253.000
116.98924 1221.000
117.08975 1142.000
117.19026 1126.000
117.29076 1163.000
117.39127 1231.000
117.49178 1142.000
117.59228 1175.000
117.69279 1170.000
117.79330 1139.000
117.89381 1103.000
117.99431 1001.000
118.09482 1064.000
118.19533 1022.000
118.29583 972.000
118.39634 981.000
118.49685 956.000
118.59735 935.000
118.69786 993.000
118.79837 942.000
118.89887 939.000
118.99938 968.000
119.09989 888.000
119.20039 855.000
119.30090 892.000
119.40141 844.000
119.50192 883.000
119.60242 880.000
119.70293 815.000
119.80344 847.000
119.90394 828.000
120.00445 844.000
120.10496 803.000
120.20546 828.000
120.30597 810.000
120.40648 727.000
120.50698 790.000
120.60749 771.000
120.70800 772.000
120.80850 811.000
120.90901 773.000
121.00952 795.000
121.11003 733.000
121.21053 704.000
121.31104 742.000
121.41155 740.000
121.51205 768.000
121.61256 763.000
121.71307 756.000
121.81357 683.000
121.91408 718.000
122.01459 730.000
122.11509 744.000
122.21560 754.000
122.31611 681.000
122.41661 661.000
122.51712 722.000
122.61763 693.000
122.71814 752.000
122.81864 728.000
122.91915 721.000
123.01966 743.000
