20.00010 8811.000
20.10061 8750.000
20.20111 8691.000
20.30162 9171.000
20.40213 12075.000
20.50263 14887.000
20.60314 17459.000
20.70365 16862.000
20.80416 16510.000
20.90466 15954.000
21.00517 15452.000
21.10568 14835.000
21.20618 14367.000
21.30669 14158.000
21.40720 13517.000
21.50770 13080.000
21.60821 12739.000
21.70872 12266.000
21.80922 11933.000
21.90973 11491.000
22.01024 11049.000
22.11074 10769.000
22.21125 10332.000
22.31176 9768.000
22.41227 9761.000
22.51277 9122.000
22.61328 9201.000
22.71379 9340.000
22.81429 9092.000
22.91480 9190.000
23.01531 9330.000
23.11581 9113.000
23.21632 9056.000
23.31683 9230.000
23.41733 9193.000
23.51784 8987.000
23.61835 8912.000
23.71885 9089.000
23.81936 8834.000
23.91987 8955.000
24.02038 8960.000
24.12088 8715.000
24.22139 8696.000
24.32190 8649.000
24.42240 8594.000
24.52291 8420.000
24.62342 8355.000
24.72392 8106.000
24.82443 7888.000
24.92494 7854.000
25.02544 7846.000
25.12595 7620.000
25.22646 7442.000
25.32696 7485.000
25.42747 7151.000
25.52798 7430.000
25.62849 7248.000
25.72899 7095.000
25.82950 7079.000
25.93001 7123.000
26.03051 7037.000
26.13102 7013.000
26.23153 6923.000
26.33203 7000.000
26.43254 6869.000
26.53305 6903.000
26.63355 6918.000
26.73406 6929.000
26.83457 7014.000
26.93507 7148.000
27.03558 7204.000
27.13609 7226.000
27.23660 7428.000
27.33710 7769.000
27.43761 8204.000
27.53812 8509.000
27.63862 8823.000
27.73913 9489.000
27.83964 10118.000
27.94014 11145.000
28.04065 11843.000
28.14116 12904.000
28.24166 14069.000
28.34217 15273.000
28.44268 15995.000
28.54319 16321.000
28.64369 16277.000
28.74420 15825.000
28.84471 14812.000
28.94521 13563.000
29.04572 12083.000
29.14623 10817.000
29.24673 9943.000
29.34724 8973.000
29.44775 8367.000
29.54825 7496.000
29.64876 6981.000
29.74927 6597.000
29.84977 6285.000
29.95028 6105.000
30.05079 5857.000
30.15130 5577.000
30.25180 5277.000
30.35231 4983.000
30.45282 4649.000
30.55332 4312.000
30.65383 4068.000
30.75434 3714.000
30.85484 3554.000
30.95535 3317.000
31.05586 3063.000
31.15636 3113.000
31.25687 3043.000
31.35738 3034.000
31.45788 2963.000
31.55839 3045.000
31.65890 2990.000
31.75941 2913.000
31.85991 2966.000
31.96042 2991.000
32.06093 3156.000
32.16143 3214.000
32.26194 3441.000
32.36245 3508.000
32.46295 3838.000
32.56346 4182.000
32.66397 4422.000
32.76447 4728.000
32.86498 5140.000
32.96549 5557.000
33.06599 5715.000
33.16650 5617.000
33.26701 5645.000
33.36752 5217.000
33.46802 4814.000
33.56853 4521.000
33.66904 4435.000
33.76954 4139.000
33.87005 4108.000
33.97056 4186.000
34.07106 4296.000
34.17157 4339.000
34.27208 4470.000
34.37258 4361.000
34.47309 4205.000
34.57360 4221.000
34.67411 4096.000
34.77461 4040.000
34.87512 3783.000
34.97563 3853.000
35.07613 3865.000
35.17664 3793.000
35.27715 3645.000
35.37765 3664.000
35.47816 3758.000
35.57867 3607.000
35.67917 3556.000
35.77968 3454.000
35.88019 3326.000
35.98069 3258.000
36.08120 3157.000
36.18171 3230.000
36.28222 3123.000
36.38272 3046.000
36.48323 3119.000
36.58374 2982.000
36.68424 2894.000
36.78475 2984.000
36.88526 2905.000
36.98576 2939.000
37.08627 2849.000
37.18678 2854.000
37.28728 2760.000
37.38779 2754.000
37.48830 2716.000
37.58880 2657.000
37.68931 2765.000
37.78982 2673.000
37.89033 2731.000
37.99083 2708.000
38.09134 2614.000
38.19185 2624.000
38.29235 2568.000
38.39286 2613.000
38.49337 2564.000
38.59387 2593.000
38.69438 2471.000
38.79489 2432.000
38.89539 2433.000
38.99590 2360.000
39.09641 2302.000
39.19691 2072.000
39.29742 2028.000
39.39793 1898.000
39.49844 1697.000
39.59894 1782.000
39.69945 1667.000
39.79996 1522.000
39.90046 1511.000
40.00097 1386.000
40.10148 1396.000
40.20198 1335.000
40.30249 1338.000
40.40300 1341.000
40.50350 1282.000
40.60401 1415.000
40.70452 1312.000
40.80502 1271.000
40.90553 1217.000
41.00604 1290.000
41.10655 1256.000
41.20705 1271.000
41.30756 1268.000
41.40807 1228.000
41.50857 1313.000
41.60908 1277.000
41.70959 1260.000
41.81009 1230.000
41.91060 1248.000
42.01111 1214.000
42.11161 1207.000
42.21212 1249.000
42.31263 1288.000
42.41314 1170.000
42.51364 1235.000
42.61415 1199.000
42.71466 1189.000
42.81516 1179.000
42.91567 1200.000
43.01618 1251.000
43.11668 1210.000
43.21719 1258.000
43.31770 1188.000
43.41820 1222.000
43.51871 1191.000
43.61922 1139.000
43.71972 1152.000
43.82023 1234.000
43.92074 1219.000
44.02125 1179.000
44.12175 1219.000
44.22226 1251.000
44.32277 1277.000
44.42327 1275.000
44.52378 1235.000
44.62429 1264.000
44.72479 1316.000
44.82530 1297.000
44.92581 1407.000
45.02631 1385.000
45.12682 1381.000
45.22733 1436.000
45.32783 1429.000
45.42834 1530.000
45.52885 1622.000
45.62936 1640.000
45.72986 1772.000
45.83037 1860.000
45.93088 1885.000
46.03138 2070.000
46.13189 2174.000
46.23240 2411.000
46.33290 2583.000
46.43341 2798.000
46.53392 3124.000
46.63442 3305.000
46.73493 3673.000
46.83544 3958.000
46.93594 4407.000
47.03645 4742.000
47.13696 5099.000
47.23747 5426.000
47.33797 5553.000
47.43848 5769.000
47.53899 5563.000
47.63949 5569.000
47.74000 5491.000
47.84051 5161.000
47.94101 4651.000
48.04152 4346.000
48.14203 4019.000
48.24253 3544.000
48.34304 3279.000
48.44355 2905.000
48.54406 2745.000
48.64456 2435.000
48.74507 2344.000
48.84558 2179.000
48.94608 2013.000
49.04659 1840.000
49.14710 1746.000
49.24760 1707.000
49.34811 1525.000
49.44862 1525.000
49.54912 1475.000
49.64963 1416.000
49.75014 1339.000
49.85064 1361.000
49.95115 1334.000
50.05166 1288.000
50.15217 1229.000
50.25267 1246.000
50.35318 1251.000
50.45369 1193.000
50.55419 1138.000
50.65470 1146.000
50.75521 1140.000
50.85571 1104.000
50.95622 1132.000
51.05673 1022.000
51.15723 1124.000
51.25774 995.000
51.35825 1064.000
51.45875 1099.000
51.55926 1079.000
51.65977 1111.000
51.76028 1045.000
51.86078 1032.000
51.96129 1002.000
52.06180 1031.000
52.16230 998.000
52.26281 992.000
52.36332 1038.000
52.46382 1056.000
52.56433 1076.000
52.66484 1068.000
52.76534 1096.000
52.86585 1015.000
52.96636 1080.000
53.06686 1051.000
53.16737 1042.000
53.26788 1123.000
53.36839 1102.000
53.46889 1110.000
53.56940 1119.000
53.66991 1098.000
53.77041 1193.000
53.87092 1173.000
53.97143 1216.000
54.07193 1287.000
54.17244 1331.000
54.27295 1334.000
54.37345 1409.000
54.47396 1510.000
54.57447 1514.000
54.67497 1601.000
54.77548 1611.000
54.87599 1779.000
54.97650 1843.000
55.07700 1976.000
55.17751 2116.000
55.27802 2291.000
55.37852 2520.000
55.47903 2735.000
55.57954 3044.000
55.68004 3244.000
55.78055 3351.000
55.88106 3514.000
55.98156 3864.000
56.08207 4006.000
56.18258 4165.000
56.28309 4315.000
56.38359 4296.000
56.48410 4216.000
56.58461 4086.000
56.68511 3808.000
56.78562 3699.000
56.88613 3449.000
56.98663 3136.000
57.08714 2899.000
57.18765 2709.000
57.28815 2490.000
57.38866 2263.000
57.48917 2117.000
57.58967 2064.000
57.69018 1880.000
57.79069 1791.000
57.89120 1692.000
57.99170 1685.000
58.09221 1571.000
58.19272 1604.000
58.29322 1511.000
58.39373 1590.000
58.49424 1528.000
58.59474 1517.000
58.69525 1474.000
58.79576 1567.000
58.89626 1484.000
58.99677 1419.000
59.09728 1518.000
59.19778 1433.000
59.29829 1351.000
59.39880 1427.000
59.49931 1330.000
59.59981 1228.000
59.70032 1202.000
59.80083 1197.000
59.90133 1186.000
60.00184 1124.000
60.10235 1138.000
60.20285 1003.000
60.30336 986.000
60.40387 994.000
60.50437 1011.000
60.60488 944.000
60.70539 937.000
60.80589 958.000
60.90640 931.000
61.00691 868.000
61.10742 873.000
61.20792 903.000
61.30843 858.000
61.40894 877.000
61.50944 862.000
61.60995 878.000
61.71046 800.000
61.81096 765.000
61.91147 770.000
62.01198 808.000
62.11248 812.000
62.21299 738.000
62.31350 792.000
62.41401 781.000
62.51451 736.000
62.61502 761.000
62.71553 749.000
62.81603 743.000
62.91654 730.000
63.01705 728.000
63.11755 739.000
63.21806 714.000
63.31857 751.000
63.41907 721.000
63.51958 724.000
63.62009 749.000
63.72059 678.000
63.82110 673.000
63.92161 701.000
64.02212 726.000
64.12262 719.000
64.22313 722.000
64.32364 703.000
64.42414 743.000
64.52465 672.000
64.62516 654.000
64.72566 661.000
64.82617 659.000
64.92668 666.000
65.02718 674.000
65.12769 636.000
65.22820 689.000
65.32870 694.000
65.42921 624.000
65.52972 661.000
65.63023 709.000
65.73073 649.000
65.83124 688.000
65.93175 701.000
66.03225 694.000
66.13276 648.000
66.23327 738.000
66.33377 684.000
66.43428 773.000
66.53479 704.000
66.63529 714.000
66.73580 725.000
66.83631 758.000
66.93681 709.000
67.03732 704.000
67.13783 710.000
67.23834 700.000
67.33884 781.000
67.43935 741.000
67.53986 756.000
67.64036 804.000
67.74087 764.000
67.84138 791.000
67.94188 813.000
68.04239 856.000
68.14290 814.000
68.24340 922.000
68.34391 905.000
68.44442 979.000
68.54492 1015.000
68.64543 1056.000
68.74594 1089.000
68.84645 1096.000
68.94695 1147.000
69.04746 1208.000
69.14797 1294.000
69.24847 1277.000
69.34898 1315.000
69.44949 1230.000
69.54999 1280.000
69.65050 1229.000
69.75101 1247.000
69.85151 1187.000
69.95202 1060.000
70.05253 1137.000
70.15304 1016.000
70.25354 959.000
70.35405 949.000
70.45456 873.000
70.55506 824.000
70.65557 828.000
70.75608 819.000
70.85658 778.000
70.95709 760.000
71.05760 764.000
71.15810 688.000
71.25861 721.000
71.35912 644.000
71.45962 692.000
71.56013 680.000
71.66064 703.000
71.76115 659.000
71.86165 617.000
71.96216 656.000
72.06267 693.000
72.16317 668.000
72.26368 723.000
72.36419 714.000
72.46469 704.000
72.56520 700.000
72.66571 678.000
72.76621 701.000
72.86672 684.000
72.96723 678.000
73.06773 689.000
73.16824 689.000
73.26875 693.000
73.36926 775.000
73.46976 671.000
73.57027 701.000
73.67078 732.000
73.77128 720.000
73.87179 712.000
73.97230 761.000
74.07280 771.000
74.17331 738.000
74.27382 763.000
74.37432 805.000
74.47483 829.000
74.57534 870.000
74.67584 891.000
74.77635 921.000
74.87686 878.000
74.97737 976.000
75.07787 1021.000
75.17838 1063.000
75.27889 1044.000
75.37939 1136.000
75.47990 1149.000
75.58041 1216.000
75.68091 1191.000
75.78142 1328.000
75.88193 1264.000
75.98243 1353.000
76.08294 1391.000
76.18345 1508.000
76.28396 1549.000
76.38446 1566.000
76.48497 1576.000
76.58548 1569.000
76.68598 1606.000
76.78649 1629.000
76.88700 1646.000
76.98750 1688.000
77.08801 1580.000
77.18852 1591.000
77.28902 1611.000
77.38953 1435.000
77.49004 1482.000
77.59054 1467.000
77.69105 1515.000
77.79156 1413.000
77.89207 1414.000
77.99257 1376.000
78.09308 1411.000
78.19359 1418.000
78.29409 1394.000
78.39460 1447.000
78.49511 1370.000
78.59561 1384.000
78.69612 1417.000
78.79663 1463.000
78.89713 1456.000
78.99764 1515.000
79.09815 1446.000
79.19865 1399.000
79.29916 1328.000
79.39967 1319.000
79.50018 1339.000
79.60068 1224.000
79.70119 1225.000
79.80170 1146.000
79.90220 1078.000
80.00271 1107.000
80.10322 1041.000
80.20372 1019.000
80.30423 973.000
80.40474 955.000
80.50524 943.000
80.60575 862.000
80.70626 933.000
80.80676 828.000
80.90727 814.000
81.00778 798.000
81.10829 754.000
81.20879 798.000
81.30930 736.000
81.40981 786.000
81.51031 732.000
81.61082 730.000
81.71133 709.000
81.81183 672.000
81.91234 698.000
82.01285 676.000
82.11335 674.000
82.21386 724.000
82.31437 682.000
82.41487 695.000
82.51538 664.000
82.61589 705.000
82.71640 658.000
82.81690 668.000
82.91741 694.000
83.01792 662.000
83.11842 655.000
83.21893 665.000
83.31944 629.000
83.41994 660.000
83.52045 662.000
83.62096 656.000
83.72146 642.000
83.82197 666.000
83.92248 676.000
84.02299 659.000
84.12349 685.000
84.22400 673.000
84.32451 674.000
84.42501 700.000
84.52552 690.000
84.62603 636.000
84.72653 636.000
84.82704 678.000
84.92755 679.000
85.02805 684.000
85.12856 705.000
85.22907 721.000
85.32957 704.000
85.43008 695.000
85.53059 732.000
85.63110 744.000
85.73160 701.000
85.83211 787.000
85.93262 753.000
86.03312 745.000
86.13363 813.000
86.23414 801.000
86.33464 852.000
86.43515 896.000
86.53566 853.000
86.63616 844.000
86.73667 905.000
86.83718 907.000
86.93768 1012.000
87.03819 1005.000
87.13870 999.000
87.23921 1034.000
87.33971 1085.000
87.44022 1129.000
87.54073 1208.000
87.64123 1271.000
87.74174 1265.000
87.84225 1266.000
87.94275 1315.000
88.04326 1265.000
88.14377 1293.000
88.24427 1336.000
88.34478 1291.000
88.44529 1310.000
88.54579 1359.000
88.64630 1308.000
88.74681 1327.000
88.84732 1302.000
88.94782 1219.000
89.04833 1160.000
89.14884 1149.000
89.24934 1166.000
89.34985 1083.000
89.45036 1109.000
89.55086 1046.000
89.65137 1021.000
89.75188 975.000
89.85238 958.000
89.95289 960.000
90.05340 940.000
90.15391 908.000
90.25441 821.000
90.35492 893.000
90.45543 824.000
90.55593 834.000
90.65644 786.000
90.75695 787.000
90.85745 792.000
90.95796 747.000
91.05847 790.000
91.15897 786.000
91.25948 742.000
91.35999 770.000
91.46049 741.000
91.56100 706.000
91.66151 692.000
91.76202 790.000
91.86252 761.000
91.96303 727.000
92.06354 751.000
92.16404 753.000
92.26455 736.000
92.36506 729.000
92.46556 773.000
92.56607 774.000
92.66658 775.000
92.76708 780.000
92.86759 789.000
92.96810 780.000
93.06860 832.000
93.16911 853.000
93.26962 798.000
93.37013 845.000
93.47063 886.000
93.57114 886.000
93.67165 870.000
93.77215 912.000
93.87266 932.000
93.97317 991.000
94.07367 981.000
94.17418 1007.000
94.27469 1067.000
94.37519 1051.000
94.47570 1096.000
94.57621 1081.000
94.67671 1150.000
94.77722 1210.000
94.87773 1127.000
94.97824 1213.000
95.07874 1231.000
95.17925 1274.000
95.27976 1235.000
95.38026 1247.000
95.48077 1239.000
95.58128 1245.000
95.68178 1178.000
95.78229 1212.000
95.88280 1182.000
95.98330 1158.000
96.08381 1157.000
96.18432 1081.000
96.28482 1084.000
96.38533 1055.000
96.48584 1003.000
96.58635 984.000
96.68685 971.000
96.78736 863.000
96.88787 937.000
96.98837 847.000
97.08888 869.000
97.18939 848.000
97.28989 765.000
97.39040 780.000
97.49091 765.000
97.59141 719.000
97.69192 713.000
97.79243 729.000
97.89294 670.000
97.99344 724.000
98.09395 733.000
98.19446 688.000
98.29496 650.000
98.39547 614.000
98.49598 613.000
98.59648 682.000
98.69699 666.000
98.79750 645.000
98.89800 638.000
98.99851 626.000
99.09902 581.000
99.19952 606.000
99.30003 621.000
99.40054 601.000
99.50105 648.000
99.60155 621.000
99.70206 578.000
99.80257 631.000
99.90307 585.000
100.00358 586.000
100.10409 577.000
100.20459 610.000
100.30510 559.000
100.40561 588.000
100.50611 548.000
100.60662 587.000
100.70713 586.000
100.80763 585.000
100.90814 601.000
101.00865 573.000
101.10916 561.000
101.20966 553.000
101.31017 599.000
101.41068 580.000
101.51118 568.000
101.61169 624.000
101.71220 569.000
101.81270 605.000
101.91321 592.000
102.01372 616.000
102.11422 592.000
102.21473 618.000
102.31524 542.000
102.41574 600.000
102.51625 599.000
102.61676 572.000
102.71727 532.000
102.81777 597.000
102.91828 591.000
103.01879 600.000
103.11929 609.000
103.21980 608.000
103.32031 587.000
103.42081 559.000
103.52132 569.000
103.62183 653.000
103.72233 629.000
103.82284 617.000
103.92335 650.000
104.02386 596.000
104.12436 636.000
104.22487 619.000
104.32538 629.000
104.42588 677.000
104.52639 634.000
104.62690 717.000
104.72740 593.000
104.82791 688.000
104.92842 669.000
105.02892 663.000
105.12943 700.000
105.22994 738.000
105.33044 735.000
105.43095 734.000
105.53146 724.000
105.63197 781.000
105.73247 692.000
105.83298 671.000
105.93349 728.000
106.03399 751.000
106.13450 721.000
106.23501 759.000
106.33551 773.000
106.43602 768.000
106.53653 792.000
106.63703 796.000
106.73754 863.000
106.83805 788.000
106.93855 854.000
107.03906 889.000
107.13957 832.000
107.24008 790.000
107.34058 824.000
107.44109 827.000
107.54160 821.000
107.64210 865.000
107.74261 817.000
107.84312 855.000
107.94362 803.000
108.04413 791.000
108.14464 834.000
108.24514 808.000
108.34565 777.000
108.44616 800.000
108.54666 812.000
108.64717 836.000
108.74768 751.000
108.84819 719.000
108.94869 772.000
109.04920 747.000
109.14971 751.000
109.25021 747.000
109.35072 751.000
109.45123 734.000
109.55173 746.000
109.65224 784.000
109.75275 773.000
109.85325 782.000
109.95376 726.000
110.05427 751.000
110.15477 756.000
110.25528 832.000
110.35579 763.000
110.45630 717.000
110.55680 755.000
110.65731 760.000
110.75782 792.000
110.85832 816.000
110.95883 759.000
111.05934 810.000
111.15984 823.000
111.26035 908.000
111.36086 793.000
111.46136 808.000
111.56187 859.000
111.66238 901.000
111.76289 835.000
111.86339 890.000
111.96390 878.000
112.06441 878.000
112.16491 928.000
112.26542 923.000
112.36593 951.000
112.46643 943.000
112.56694 987.000
112.66745 1000.000
112.76795 1027.000
112.86846 1085.000
112.96897 1079.000
113.06947 1054.000
113.16998 1153.000
113.27049 1165.000
113.37100 1121.000
113.47150 1162.000
113.57201 1211.000
113.67252 1229.000
113.77302 1233.000
113.87353 1243.000
113.97404 1283.000
114.07454 1269.000
114.17505 1356.000
114.27556 1354.000
114.37606 1287.000
114.47657 1344.000
114.57708 1286.000
114.67758 1369.000
114.77809 1374.000
114.87860 1349.000
114.97911 1374.000
115.07961 1366.000
115.18012 1450.000
115.28063 1453.000
115.38113 1356.000
115.48164 1365.000
115.58215 1395.000
115.68265 1327.000
115.78316 1330.000
115.88367 1360.000
115.98417 1324.000
116.08468 1264.000
116.18519 1315.000
116.28569 1254.000
116.38620 1295.000
116.48671 1278.000
116.58722 1257.000
116.68772 1221.000
116.78823 1177.000
116.88874 1187.000
116.98924 1233.000
117.08975 1257.000
117.19026 1108.000
117.29076 1149.000
117.39127 1188.000
117.49178 1130.000
117.59228 1142.000
117.69279 1068.000
117.79330 1110.000
117.89381 1105.000
117.99431 999.000
118.09482 1080.000
118.19533 1028.000
118.29583 1071.000
118.39634 947.000
118.49685 1043.000
118.59735 964.000
118.69786 972.000
118.79837 959.000
118.89887 920.000
118.99938 843.000
119.09989 943.000
119.20039 941.000
119.30090 882.000
119.40141 911.000
119.50192 898.000
119.60242 862.000
119.70293 883.000
119.80344 856.000
119.90394 837.000
120.00445 815.000
120.10496 817.000
120.20546 834.000
120.30597 816.000
120.40648 824.000
120.50698 861.000
120.60749 843.000
120.70800 765.000
120.80850 798.000
120.90901 750.000
121.00952 779.000
121.11003 762.000
121.21053 747.000
121.31104 740.000
121.41155 709.000
121.51205 779.000
121.61256 721.000
121.71307 780.000
121.81357 775.000
121.91408 702.000
122.01459 770.000
122.11509 699.000
122.21560 734.000
122.31611 710.000
122.41661 712.000
122.51712 694.000
122.61763 683.000
122.71814 723.000
122.81864 719.000
122.91915 743.000
123.01966 743.000
