20.00010 9060.000
20.10061 8865.000
20.20111 8741.000
20.30162 9435.000
20.40213 12199.000
20.50263 15346.000
20.60314 17492.000
20.70365 17149.000
20.80416 16635.000
20.90466 16019.000
21.00517 15567.000
21.10568 15179.000
21.20618 14463.000
21.30669 14308.000
21.40720 13724.000
21.50770 13255.000
21.60821 13021.000
21.70872 12712.000
21.80922 12206.000
21.90973 11707.000
22.01024 11234.000
22.11074 10943.000
22.21125 10526.000
22.31176 9898.000
22.41227 9721.000
22.51277 9500.000
22.61328 9367.000
22.71379 9379.000
22.81429 9376.000
22.91480 9327.000
23.01531 9322.000
23.11581 9263.000
23.21632 9146.000
23.31683 9441.000
23.41733 9277.000
23.51784 9243.000
23.61835 9087.000
23.71885 9050.000
23.81936 9039.000
23.91987 8778.000
24.02038 8918.000
24.12088 9044.000
24.22139 8624.000
24.32190 8770.000
24.42240 8560.000
24.52291 8460.000
24.62342 8513.000
24.72392 8369.000
24.82443 8168.000
24.92494 7805.000
25.02544 8007.000
25.12595 7754.000
25.22646 7803.000
25.32696 7535.000
25.42747 7571.000
25.52798 7289.000
25.62849 7305.000
25.72899 7197.000
25.82950 7173.000
25.93001 6966.000
26.03051 7127.000
26.13102 7152.000
26.23153 6970.000
26.33203 6928.000
26.43254 6931.000
26.53305 6966.000
26.63355 7007.000
26.73406 7114.000
26.83457 7029.000
26.93507 7024.000
27.03558 7253.000
27.13609 7261.000
27.23660 7574.000
27.33710 7782.000
27.43761 7992.000
27.53812 8322.000
27.63862 8927.000
27.73913 9148.000
27.83964 9902.000
27.94014 10644.000
28.04065 11696.000
28.14116 12728.000
28.24166 13776.000
28.34217 14870.000
28.44268 15710.000
28.54319 15964.000
28.64369 16333.000
28.74420 15867.000
28.84471 14925.000
28.94521 13804.000
29.04572 12572.000
29.14623 11293.000
29.24673 10147.000
29.34724 9172.000
29.44775 8541.000
29.54825 7767.000
29.64876 7136.000
29.74927 6815.000
29.84977 6503.000
29.95028 6140.000
30.05079 6089.000
30.15130 5671.000
30.25180 5490.000
30.35231 5112.000
30.45282 4713.000
30.55332 4623.000
30.65383 4320.000
30.75434 3977.000
30.85484 3626.000
30.95535 3388.000
31.05586 3337.000
31.15636 3239.000
31.25687 3148.000
31.35738 3178.000
31.45788 3062.000
31.55839 3096.000
31.65890 3111.000
31.75941 3074.000
31.85991 3061.000
31.96042 3109.000
32.06093 3133.000
32.16143 3275.000
32.26194 3483.000
32.36245 3640.000
32.46295 3950.000
32.56346 4149.000
32.66397 4378.000
32.76447 4871.000
32.86498 5454.000
32.96549 5439.000
33.06599 5780.000
33.16650 5874.000
33.26701 5814.000
33.36752 5537.000
33.46802 5085.000
33.56853 4717.000
33.66904 4653.000
33.76954 4326.000
33.87005 4288.000
33.97056 4458.000
34.07106 4293.000
34.17157 4387.000
34.27208 4406.000
34.37258 4423.000
34.47309 4343.000
34.57360 4346.000
34.67411 4143.000
34.77461 4179.000
34.87512 4007.000
34.97563 3933.000
35.07613 3901.000
35.17664 3753.000
35.27715 3606.000
35.37765 3744.000
35.47816 3717.000
35.57867 3608.000
35.67917 3535.000
35.77968 3431.000
35.88019 3371.000
35.98069 3448.000
36.08120 3351.000
36.18171 3184.000
36.28222 3212.000
36.38272 3135.000
36.48323 3133.000
36.58374 3007.000
36.68424 3065.000
36.78475 2978.000
36.88526 2951.000
36.98576 2909.000
37.08627 2924.000
37.18678 2931.000
37.28728 2869.000
37.38779 2928.000
37.48830 2768.000
37.58880 2811.000
37.68931 2814.000
37.78982 2811.000
37.89033 2773.000
37.99083 2749.000
38.09134 2603.000
38.19185 2712.000
38.29235 2810.000
38.39286 2647.000
38.49337 2596.000
38.59387 2565.000
38.69438 2607.000
38.79489 2612.000
38.89539 2466.000
38.99590 2396.000
39.09641 2254.000
39.19691 2194.000
39.29742 2045.000
39.39793 2026.000
39.49844 1880.000
39.59894 1737.000
39.69945 1692.000
39.79996 1540.000
39.90046 1546.000
40.00097 1525.000
40.10148 1431.000
40.20198 1498.000
40.30249 1399.000
40.40300 1406.000
40.50350 1346.000
40.60401 1355.000
40.70452 1375.000
40.80502 1355.000
40.90553 1269.000
41.00604 1239.000
41.10655 1315.000
41.20705 1246.000
41.30756 1311.000
41.40807 1329.000
41.50857 1288.000
41.60908 1310.000
41.70959 1282.000
41.81009 1292.000
41.91060 1295.000
42.01111 1214.000
42.11161 1281.000
42.21212 1255.000
42.31263 1256.000
42.41314 1277.000
42.51364 1285.000
42.61415 1254.000
42.71466 1266.000
42.81516 1305.000
42.91567 1223.000
43.01618 1287.000
43.11668 1271.000
43.21719 1279.000
43.31770 1271.000
43.41820 1311.000
43.51871 1226.000
43.61922 1216.000
43.71972 1310.000
43.82023 1249.000
43.92074 1338.000
44.02125 1179.000
44.12175 1229.000
44.22226 1238.000
44.32277 1260.000
44.42327 1297.000
44.52378 1254.000
44.62429 1291.000
44.72479 1340.000
44.82530 1308.000
44.92581 1366.000
45.02631 1379.000
45.12682 1489.000
45.22733 1463.000
45.32783 1494.000
45.42834 1577.000
45.52885 1627.000
45.62936 1734.000
45.72986 1834.000
45.83037 1868.000
45.93088 1964.000
46.03138 2054.000
46.13189 2217.000
46.23240 2394.000
46.33290 2480.000
46.43341 2810.000
46.53392 2966.000
46.63442 3273.000
46.73493 3722.000
46.83544 3761.000
46.93594 4250.000
47.03645 4621.000
47.13696 4887.000
47.23747 5238.000
47.33797 5348.000
47.43848 5532.000
47.53899 5659.000
47.63949 5427.000
47.74000 5335.000
47.84051 5197.000
47.94101 4750.000
48.04152 4486.000
48.14203 4018.000
48.24253 3682.000
48.34304 3306.000
48.44355 3106.000
48.54406 2788.000
48.64456 2494.000
48.74507 2364.000
48.84558 2174.000
48.94608 2074.000
49.04659 1859.000
49.14710 1834.000
49.24760 1692.000
49.34811 1623.000
49.44862 1641.000
49.54912 1449.000
49.64963 1479.000
49.75014 1419.000
49.85064 1331.000
49.95115 1329.000
50.05166 1321.000
50.15217 1258.000
50.25267 1232.000
50.35318 1196.000
50.45369 1204.000
50.55419 1245.000
50.65470 1163.000
50.75521 1137.000
50.85571 1122.000
50.95622 1079.000
51.05673 1092.000
51.15723 1092.000
51.25774 1140.000
51.35825 1121.000
51.45875 1097.000
51.55926 1013.000
51.65977 1050.000
51.76028 1068.000
51.86078 1075.000
51.96129 1069.000
52.06180 1052.000
52.16230 1095.000
52.26281 999.000
52.36332 1025.000
52.46382 1016.000
52.56433 1094.000
52.66484 1036.000
52.76534 1090.000
52.86585 1021.000
52.96636 1083.000
53.06686 1105.000
53.16737 1139.000
53.26788 1036.000
53.36839 1099.000
53.46889 1148.000
53.56940 1153.000
53.66991 1217.000
53.77041 1169.000
53.87092 1271.000
53.97143 1213.000
54.07193 1295.000
54.17244 1257.000
54.27295 1320.000
54.37345 1416.000
54.47396 1409.000
54.57447 1452.000
54.67497 1526.000
54.77548 1613.000
54.87599 1668.000
54.97650 1838.000
55.07700 2030.000
55.17751 2080.000
55.27802 2172.000
55.37852 2381.000
55.47903 2567.000
55.57954 2865.000
55.68004 2975.000
55.78055 3142.000
55.88106 3381.000
55.98156 3716.000
56.08207 3941.000
56.18258 4008.000
56.28309 4107.000
56.38359 4236.000
56.48410 4177.000
56.58461 4120.000
56.68511 4042.000
56.78562 3910.000
56.88613 3601.000
56.98663 3207.000
57.08714 3026.000
57.18765 2765.000
57.28815 2586.000
57.38866 2383.000
57.48917 2322.000
57.58967 2054.000
57.69018 1949.000
57.79069 1843.000
57.89120 1761.000
57.99170 1604.000
58.09221 1655.000
58.19272 1571.000
58.29322 1527.000
58.39373 1568.000
58.49424 1505.000
58.59474 1492.000
58.69525 1468.000
58.79576 1480.000
58.89626 1491.000
58.99677 1375.000
59.09728 1464.000
59.19778 1427.000
59.29829 1408.000
59.39880 1344.000
59.49931 1393.000
59.59981 1359.000
59.70032 1289.000
59.80083 1179.000
59.90133 1180.000
60.00184 1132.000
60.10235 1161.000
60.20285 1080.000
60.30336 1032.000
60.40387 1084.000
60.50437 987.000
60.60488 923.000
60.70539 964.000
60.80589 920.000
60.90640 957.000
61.00691 831.000
61.10742 859.000
61.20792 870.000
61.30843 889.000
61.40894 889.000
61.50944 877.000
61.60995 842.000
61.71046 821.000
61.81096 828.000
61.91147 768.000
62.01198 793.000
62.11248 808.000
62.21299 783.000
62.31350 785.000
62.41401 734.000
62.51451 716.000
62.61502 760.000
62.71553 735.000
62.81603 717.000
62.91654 709.000
63.01705 776.000
63.11755 712.000
63.21806 774.000
63.31857 740.000
63.41907 689.000
63.51958 671.000
63.62009 661.000
63.72059 702.000
63.82110 739.000
63.92161 700.000
64.02212 725.000
64.12262 717.000
64.22313 730.000
64.32364 687.000
64.42414 704.000
64.52465 631.000
64.62516 689.000
64.72566 662.000
64.82617 686.000
64.92668 627.000
65.02718 704.000
65.12769 675.000
65.22820 681.000
65.32870 660.000
65.42921 698.000
65.52972 696.000
65.63023 707.000
65.73073 646.000
65.83124 667.000
65.93175 734.000
66.03225 712.000
66.13276 733.000
66.23327 740.000
66.33377 694.000
66.43428 722.000
66.53479 723.000
66.63529 751.000
66.73580 742.000
66.83631 705.000
66.93681 740.000
67.03732 733.000
67.13783 730.000
67.23834 692.000
67.33884 744.000
67.43935 721.000
67.53986 737.000
67.64036 726.000
67.74087 753.000
67.84138 807.000
67.94188 861.000
68.04239 829.000
68.14290 874.000
68.24340 924.000
68.34391 963.000
68.44442 920.000
68.54492 975.000
68.64543 1026.000
68.74594 1047.000
68.84645 1061.000
68.94695 1106.000
69.04746 1184.000
69.14797 1253.000
69.24847 1292.000
69.34898 1289.000
69.44949 1292.000
69.54999 1262.000
69.65050 1266.000
69.75101 1284.000
69.85151 1210.000
69.95202 1142.000
70.05253 1095.000
70.15304 1062.000
70.25354 971.000
70.35405 947.000
70.45456 900.000
70.55506 830.000
70.65557 804.000
70.75608 792.000
70.85658 756.000
70.95709 783.000
71.05760 762.000
71.15810 767.000
71.25861 754.000
71.35912 670.000
71.45962 689.000
71.56013 670.000
71.66064 722.000
71.76115 625.000
71.86165 655.000
71.96216 719.000
72.06267 614.000
72.16317 684.000
72.26368 717.000
72.36419 659.000
72.46469 655.000
72.56520 701.000
72.66571 728.000
72.76621 729.000
72.86672 719.000
72.96723 697.000
73.06773 668.000
73.16824 695.000
73.26875 680.000
73.36926 702.000
73.46976 724.000
73.57027 730.000
73.67078 773.000
73.77128 749.000
73.87179 755.000
73.97230 802.000
74.07280 768.000
74.17331 797.000
74.27382 846.000
74.37432 824.000
74.47483 821.000
74.57534 862.000
74.67584 907.000
74.77635 888.000
74.87686 934.000
74.97737 964.000
75.07787 960.000
75.17838 1042.000
75.27889 1036.000
75.37939 1097.000
75.47990 1162.000
75.58041 1175.000
75.68091 1178.000
75.78142 1219.000
75.88193 1322.000
75.98243 1313.000
76.08294 1418.000
76.18345 1445.000
76.28396 1471.000
76.38446 1581.000
76.48497 1578.000
76.58548 1614.000
76.68598 1674.000
76.78649 1529.000
76.88700 1580.000
76.98750 1648.000
77.08801 1595.000
77.18852 1553.000
77.28902 1537.000
77.38953 1492.000
77.49004 1568.000
77.59054 1532.000
77.69105 1496.000
77.79156 1505.000
77.89207 1446.000
77.99257 1377.000
78.09308 1408.000
78.19359 1375.000
78.29409 1405.000
78.39460 1362.000
78.49511 1406.000
78.59561 1442.000
78.69612 1489.000
78.79663 1368.000
78.89713 1369.000
78.99764 1372.000
79.09815 1372.000
79.19865 1475.000
79.29916 1332.000
79.39967 1362.000
79.50018 1324.000
79.60068 1243.000
79.70119 1263.000
79.80170 1259.000
79.90220 1148.000
80.00271 1101.000
80.10322 1065.000
80.20372 1046.000
80.30423 1036.000
80.40474 1029.000
80.50524 937.000
80.60575 905.000
80.70626 880.000
80.80676 819.000
80.90727 809.000
81.00778 849.000
81.10829 776.000
81.20879 813.000
81.30930 744.000
81.40981 793.000
81.51031 747.000
81.61082 757.000
81.71133 728.000
81.81183 705.000
81.91234 728.000
82.01285 692.000
82.11335 697.000
82.21386 651.000
82.31437 643.000
82.41487 649.000
82.51538 687.000
82.61589 692.000
82.71640 689.000
82.81690 683.000
82.91741 709.000
83.01792 664.000
83.11842 653.000
83.21893 660.000
83.31944 650.000
83.41994 667.000
83.52045 707.000
83.62096 671.000
83.72146 645.000
83.82197 678.000
83.92248 638.000
84.02299 661.000
84.12349 626.000
84.22400 657.000
84.32451 614.000
84.42501 608.000
84.52552 672.000
84.62603 643.000
84.72653 675.000
84.82704 721.000
84.92755 708.000
85.02805 635.000
85.12856 682.000
85.22907 745.000
85.32957 709.000
85.43008 726.000
85.53059 734.000
85.63110 701.000
85.73160 744.000
85.83211 731.000
85.93262 715.000
86.03312 764.000
86.13363 766.000
86.23414 780.000
86.33464 817.000
86.43515 760.000
86.53566 820.000
86.63616 819.000
86.73667 886.000
86.83718 923.000
86.93768 936.000
87.03819 984.000
87.13870 1021.000
87.23921 1067.000
87.33971 1025.000
87.44022 1132.000
87.54073 1054.000
87.64123 1132.000
87.74174 1194.000
87.84225 1168.000
87.94275 1260.000
88.04326 1306.000
88.14377 1300.000
88.24427 1323.000
88.34478 1257.000
88.44529 1270.000
88.54579 1260.000
88.64630 1234.000
88.74681 1290.000
88.84732 1280.000
88.94782 1231.000
89.04833 1251.000
89.14884 1158.000
89.24934 1123.000
89.34985 1059.000
89.45036 1040.000
89.55086 992.000
89.65137 1026.000
89.75188 1035.000
89.85238 981.000
89.95289 962.000
90.05340 913.000
90.15391 897.000
90.25441 898.000
90.35492 851.000
90.45543 823.000
90.55593 823.000
90.65644 834.000
90.75695 850.000
90.85745 812.000
90.95796 771.000
91.05847 787.000
91.15897 764.000
91.25948 766.000
91.35999 775.000
91.46049 709.000
91.56100 787.000
91.66151 697.000
91.76202 717.000
91.86252 713.000
91.96303 760.000
92.06354 698.000
92.16404 725.000
92.26455 706.000
92.36506 730.000
92.46556 750.000
92.56607 714.000
92.66658 752.000
92.76708 759.000
92.86759 738.000
92.96810 778.000
93.06860 809.000
93.16911 836.000
93.26962 801.000
93.37013 820.000
93.47063 792.000
93.57114 899.000
93.67165 879.000
93.77215 849.000
93.87266 925.000
93.97317 938.000
94.07367 910.000
94.17418 940.000
94.27469 1013.000
94.37519 1020.000
94.47570 1088.000
94.57621 1086.000
94.67671 1106.000
94.77722 1183.000
94.87773 1195.000
94.97824 1168.000
95.07874 1179.000
95.17925 1268.000
95.27976 1248.000
95.38026 1186.000
95.48077 1298.000
95.58128 1233.000
95.68178 1199.000
95.78229 1148.000
95.88280 1202.000
95.98330 1088.000
96.08381 1178.000
96.18432 1092.000
96.28482 1058.000
96.38533 978.000
96.48584 1036.000
96.58635 992.000
96.68685 946.000
96.78736 901.000
96.88787 909.000
96.98837 858.000
97.08888 873.000
97.18939 831.000
97.28989 811.000
97.39040 848.000
97.49091 779.000
97.59141 725.000
97.69192 673.000
97.79243 719.000
97.89294 745.000
97.99344 715.000
98.09395 675.000
98.19446 678.000
98.29496 719.000
98.39547 702.000
98.49598 659.000
98.59648 689.000
98.69699 564.000
98.79750 607.000
98.89800 637.000
98.99851 608.000
99.09902 636.000
99.19952 589.000
99.30003 568.000
99.40054 612.000
99.50105 597.000
99.60155 638.000
99.70206 583.000
99.80257 596.000
99.90307 623.000
100.00358 588.000
100.10409 583.000
100.20459 570.000
100.30510 546.000
100.40561 589.000
100.50611 594.000
100.60662 600.000
100.70713 576.000
100.80763 575.000
100.90814 573.000
101.00865 578.000
101.10916 570.000
101.20966 574.000
101.31017 589.000
101.41068 570.000
101.51118 601.000
101.61169 570.000
101.71220 574.000
101.81270 576.000
101.91321 599.000
102.01372 566.000
102.11422 589.000
102.21473 598.000
102.31524 589.000
102.41574 577.000
102.51625 557.000
102.61676 565.000
102.71727 595.000
102.81777 613.000
102.91828 549.000
103.01879 583.000
103.11929 538.000
103.21980 578.000
103.32031 549.000
103.42081 584.000
103.52132 610.000
103.62183 609.000
103.72233 586.000
103.82284 631.000
103.92335 597.000
104.02386 609.000
104.12436 649.000
104.22487 628.000
104.32538 662.000
104.42588 646.000
104.52639 661.000
104.62690 635.000
104.72740 630.000
104.82791 625.000
104.92842 625.000
105.02892 666.000
105.12943 682.000
105.22994 649.000
105.33044 680.000
105.43095 668.000
105.53146 680.000
105.63197 686.000
105.73247 723.000
105.83298 695.000
105.93349 736.000
106.03399 703.000
106.13450 701.000
106.23501 782.000
106.33551 814.000
106.43602 747.000
106.53653 786.000
106.63703 839.000
106.73754 770.000
106.83805 837.000
106.93855 765.000
107.03906 823.000
107.13957 827.000
107.24008 814.000
107.34058 809.000
107.44109 803.000
107.54160 841.000
107.64210 810.000
107.74261 831.000
107.84312 833.000
107.94362 804.000
108.04413 840.000
108.14464 837.000
108.24514 817.000
108.34565 816.000
108.44616 739.000
108.54666 800.000
108.64717 773.000
108.74768 770.000
108.84819 748.000
108.94869 743.000
109.04920 771.000
109.14971 778.000
109.25021 753.000
109.35072 704.000
109.45123 794.000
109.55173 757.000
109.65224 743.000
109.75275 764.000
109.85325 749.000
109.95376 707.000
110.05427 777.000
110.15477 765.000
110.25528 779.000
110.35579 740.000
110.45630 775.000
110.55680 728.000
110.65731 783.000
110.75782 802.000
110.85832 774.000
110.95883 792.000
111.05934 829.000
111.15984 779.000
111.26035 779.000
111.36086 813.000
111.46136 846.000
111.56187 898.000
111.66238 828.000
111.76289 834.000
111.86339 839.000
111.96390 868.000
112.06441 852.000
112.16491 890.000
112.26542 901.000
112.36593 953.000
112.46643 942.000
112.56694 951.000
112.66745 961.000
112.76795 947.000
112.86846 1053.000
112.96897 1056.000
113.06947 1021.000
113.16998 1149.000
113.27049 1117.000
113.37100 1023.000
113.47150 1119.000
113.57201 1134.000
113.67252 1200.000
113.77302 1226.000
113.87353 1268.000
113.97404 1326.000
114.07454 1248.000
114.17505 1262.000
114.27556 1305.000
114.37606 1226.000
114.47657 1372.000
114.57708 1340.000
114.67758 1334.000
114.77809 1362.000
114.87860 1307.000
114.97911 1375.000
115.07961 1393.000
115.18012 1358.000
115.28063 1421.000
115.38113 1384.000
115.48164 1418.000
115.58215 1299.000
115.68265 1342.000
115.78316 1256.000
115.88367 1311.000
115.98417 1349.000
116.08468 1366.000
116.18519 1287.000
116.28569 1304.000
116.38620 1287.000
116.48671 1291.000
116.58722 1281.000
116.68772 1285.000
116.78823 1182.000
116.88874 1257.000
116.98924 1178.000
117.08975 1198.000
117.19026 1186.000
117.29076 1176.000
117.39127 1147.000
117.49178 1187.000
117.59228 1131.000
117.69279 1105.000
117.79330 1088.000
117.89381 1120.000
117.99431 1106.000
118.09482 1079.000
118.19533 1022.000
118.29583 1086.000
118.39634 919.000
118.49685 1038.000
118.59735 966.000
118.69786 1015.000
118.79837 1007.000
118.89887 965.000
118.99938 893.000
119.09989 885.000
119.20039 922.000
119.30090 961.000
119.40141 888.000
119.50192 867.000
119.60242 892.000
119.70293 924.000
119.80344 851.000
119.90394 807.000
120.00445 841.000
120.10496 795.000
120.20546 809.000
120.30597 813.000
120.40648 848.000
120.50698 807.000
120.60749 752.000
120.70800 780.000
120.80850 812.000
120.90901 742.000
121.00952 722.000
121.11003 777.000
121.21053 766.000
121.31104 730.000
121.41155 763.000
121.51205 715.000
121.61256 730.000
121.71307 709.000
121.81357 724.000
121.91408 716.000
122.01459 740.000
122.11509 739.000
122.21560 758.000
122.31611 735.000
122.41661 731.000
122.51712 736.000
122.61763 704.000
122.71814 721.000
122.81864 709.000
122.91915 728.000
123.01966 704.000
