20.00010 8576.000
20.10061 8441.000
20.20111 8242.000
20.30162 8956.000
20.40213 11723.000
20.50263 14879.000
20.60314 17417.000
20.70365 17198.000
20.80416 16528.000
20.90466 15896.000
21.00517 15500.000
21.10568 14667.000
21.20618 14067.000
21.30669 13852.000
21.40720 13389.000
21.50770 13064.000
21.60821 12780.000
21.70872 12395.000
21.80922 11948.000
21.90973 11432.000
22.01024 10914.000
22.11074 10417.000
22.21125 9950.000
22.31176 9795.000
22.41227 9310.000
22.51277 9021.000
22.61328 9045.000
22.71379 8924.000
22.81429 8901.000
22.91480 8895.000
23.01531 8883.000
23.11581 8917.000
23.21632 9037.000
23.31683 8958.000
23.41733 9013.000
23.51784 8864.000
23.61835 8907.000
23.71885 8796.000
23.81936 8817.000
23.91987 8582.000
24.02038 8887.000
24.12088 8653.000
24.22139 8587.000
24.32190 8415.000
24.42240 8357.000
24.52291 8276.000
24.62342 8106.000
24.72392 7967.000
24.82443 7895.000
24.92494 7717.000
25.02544 7678.000
25.12595 7612.000
25.22646 7481.000
25.32696 7439.000
25.42747 7164.000
25.52798 7070.000
25.62849 7076.000
25.72899 7118.000
25.82950 6833.000
25.93001 6858.000
26.03051 6770.000
26.13102 6744.000
26.23153 6651.000
26.33203 6674.000
26.43254 6666.000
26.53305 6540.000
26.63355 6739.000
26.73406 6732.000
26.83457 6901.000
26.93507 6743.000
27.03558 6985.000
27.13609 7124.000
27.23660 7344.000
27.33710 7540.000
27.43761 7938.000
27.53812 8203.000
27.63862 8752.000
27.73913 9400.000
27.83964 10171.000
27.94014 10952.000
28.04065 11870.000
28.14116 13107.000
28.24166 14148.000
28.34217 15243.000
28.44268 15694.000
28.54319 16222.000
28.64369 16380.000
28.74420 15556.000
28.84471 14496.000
28.94521 13361.000
29.04572 12040.000
29.14623 10862.000
29.24673 9916.000
29.34724 8824.000
29.44775 7943.000
29.54825 7527.000
29.64876 6904.000
29.74927 6489.000
29.84977 6096.000
29.95028 6044.000
30.05079 5701.000
30.15130 5380.000
30.25180 5062.000
30.35231 4876.000
30.45282 4490.000
30.55332 4126.000
30.65383 3886.000
30.75434 3618.000
30.85484 3431.000
30.95535 3078.000
31.05586 2957.000
31.15636 2863.000
31.25687 2801.000
31.35738 2834.000
31.45788 2825.000
31.55839 2899.000
31.65890 2791.000
31.75941 2825.000
31.85991 2921.000
31.96042 2915.000
32.06093 2964.000
32.16143 3132.000
32.26194 3215.000
32.36245 3374.000
32.46295 3744.000
32.56346 4029.000
32.66397 4356.000
32.76447 4765.000
32.86498 5107.000
32.96549 5524.000
33.06599 5748.000
33.16650 5599.000
33.26701 5407.000
33.36752 4934.000
33.46802 4661.000
33.56853 4374.000
33.66904 4290.000
33.76954 4104.000
33.87005 4174.000
33.97056 4070.000
34.07106 3996.000
34.17157 4060.000
34.27208 4300.000
34.37258 4310.000
34.47309 4137.000
34.57360 4132.000
34.67411 4116.000
34.77461 3931.000
34.87512 3984.000
34.97563 3723.000
35.07613 3710.000
35.17664 3572.000
35.27715 3464.000
35.37765 3634.000
35.47816 3617.000
35.57867 3518.000
35.67917 3376.000
35.77968 3386.000
35.88019 3271.000
35.98069 3294.000
36.08120 3098.000
36.18171 3138.000
36.28222 3047.000
36.38272 3111.000
36.48323 3012.000
36.58374 2980.000
36.68424 2871.000
36.78475 2780.000
36.88526 2747.000
36.98576 2817.000
37.08627 2774.000
37.18678 2797.000
37.28728 2795.000
37.38779 2710.000
37.48830 2720.000
37.58880 2659.000
37.68931 2746.000
37.78982 2739.000
37.89033 2597.000
37.99083 2690.000
38.09134 2630.000
38.19185 2602.000
38.29235 2485.000
38.39286 2463.000
38.49337 2400.000
38.59387 2542.000
38.69438 2635.000
38.79489 2425.000
38.89539 2355.000
38.99590 2243.000
39.09641 2169.000
39.19691 1997.000
39.29742 1936.000
39.39793 1836.000
39.49844 1722.000
39.59894 1671.000
39.69945 1535.000
39.79996 1480.000
39.90046 1399.000
40.00097 1318.000
40.10148 1209.000
40.20198 1275.000
40.30249 1292.000
40.40300 1278.000
40.50350 1232.000
40.60401 1249.000
40.70452 1116.000
40.80502 1226.000
40.90553 1202.000
41.00604 1139.000
41.10655 1132.000
41.20705 1141.000
41.30756 1203.000
41.40807 1197.000
41.50857 1156.000
41.60908 1148.000
41.70959 1189.000
41.81009 1092.000
41.91060 1209.000
42.01111 1121.000
42.11161 1159.000
42.21212 1177.000
42.31263 1131.000
42.41314 1221.000
42.51364 1135.000
42.61415 1136.000
42.71466 1156.000
42.81516 1163.000
42.91567 1158.000
43.01618 1134.000
43.11668 1175.000
43.21719 1195.000
43.31770 1143.000
43.41820 1118.000
43.51871 1113.000
43.61922 1157.000
43.71972 1099.000
43.82023 1153.000
43.92074 1130.000
44.02125 1184.000
44.12175 1158.000
44.22226 1205.000
44.32277 1223.000
44.42327 1184.000
44.52378 1183.000
44.62429 1200.000
44.72479 1243.000
44.82530 1216.000
44.92581 1293.000
45.02631 1295.000
45.12682 1319.000
45.22733 1340.000
45.32783 1530.000
45.42834 1421.000
45.52885 1504.000
45.62936 1587.000
45.72986 1714.000
45.83037 1770.000
45.93088 1867.000
46.03138 2052.000
46.13189 2163.000
46.23240 2328.000
46.33290 2510.000
46.43341 2788.000
46.53392 2972.000
46.63442 3386.000
46.73493 3583.000
46.83544 3972.000
46.93594 4256.000
47.03645 4695.000
47.13696 5073.000
47.23747 5421.000
47.33797 5471.000
47.43848 5721.000
47.53899 5733.000
47.63949 5523.000
47.74000 5294.000
47.84051 5070.000
47.94101 4663.000
48.04152 4319.000
48.14203 3981.000
48.24253 3616.000
48.34304 3336.000
48.44355 2906.000
48.54406 2658.000
48.64456 2453.000
48.74507 2198.000
48.84558 2060.000
48.94608 1884.000
49.04659 1753.000
49.14710 1694.000
49.24760 1589.000
49.34811 1536.000
49.44862 1427.000
49.54912 1389.000
49.64963 1335.000
49.75014 1316.000
49.85064 1330.000
49.95115 1216.000
50.05166 1210.000
50.15217 1228.000
50.25267 1170.000
50.35318 1208.000
50.45369 1191.000
50.55419 1188.000
50.65470 1100.000
50.75521 1134.000
50.85571 1070.000
50.95622 1063.000
51.05673 1017.000
51.15723 1034.000
51.25774 1020.000
51.35825 1046.000
51.45875 1071.000
51.55926 1013.000
51.65977 1023.000
51.76028 1047.000
51.86078 948.000
51.96129 1013.000
52.06180 1007.000
52.16230 1024.000
52.26281 1016.000
52.36332 953.000
52.46382 1019.000
52.56433 1060.000
52.66484 1006.000
52.76534 993.000
52.86585 1070.000
52.96636 995.000
53.06686 1042.000
53.16737 1022.000
53.26788 1017.000
53.36839 1073.000
53.46889 1040.000
53.56940 1066.000
53.66991 1171.000
53.77041 1101.000
53.87092 1220.000
53.97143 1227.000
54.07193 1230.000
54.17244 1276.000
54.27295 1339.000
54.37345 1327.000
54.47396 1444.000
54.57447 1490.000
54.67497 1580.000
54.77548 1630.000
54.87599 1708.000
54.97650 1885.000
55.07700 1986.000
55.17751 2165.000
55.27802 2335.000
55.37852 2466.000
55.47903 2597.000
55.57954 2916.000
55.68004 3099.000
55.78055 3330.000
55.88106 3718.000
55.98156 3801.000
56.08207 4045.000
56.18258 4089.000
56.28309 4296.000
56.38359 4226.000
56.48410 4115.000
56.58461 4006.000
56.68511 3840.000
56.78562 3668.000
56.88613 3334.000
56.98663 3063.000
57.08714 3002.000
57.18765 2689.000
57.28815 2456.000
57.38866 2323.000
57.48917 2174.000
57.58967 1976.000
57.69018 1817.000
57.79069 1762.000
57.89120 1630.000
57.99170 1656.000
58.09221 1604.000
58.19272 1518.000
58.29322 1514.000
58.39373 1454.000
58.49424 1562.000
58.59474 1625.000
58.69525 1501.000
58.79576 1455.000
58.89626 1464.000
58.99677 1408.000
59.09728 1446.000
59.19778 1427.000
59.29829 1374.000
59.39880 1349.000
59.49931 1378.000
59.59981 1245.000
59.70032 1241.000
59.80083 1207.000
59.90133 1201.000
60.00184 1106.000
60.10235 1011.000
60.20285 1067.000
60.30336 1001.000
60.40387 980.000
60.50437 973.000
60.60488 946.000
60.70539 883.000
60.80589 877.000
60.90640 931.000
61.00691 861.000
61.10742 891.000
61.20792 866.000
61.30843 838.000
61.40894 844.000
61.50944 809.000
61.60995 857.000
61.71046 824.000
61.81096 788.000
61.91147 781.000
62.01198 752.000
62.11248 807.000
62.21299 738.000
62.31350 711.000
62.41401 728.000
62.51451 736.000
62.61502 751.000
62.71553 754.000
62.81603 724.000
62.91654 759.000
63.01705 695.000
63.11755 693.000
63.21806 711.000
63.31857 713.000
63.41907 710.000
63.51958 712.000
63.62009 669.000
63.72059 639.000
63.82110 661.000
63.92161 660.000
64.02212 655.000
64.12262 707.000
64.22313 696.000
64.32364 650.000
64.42414 712.000
64.52465 673.000
64.62516 671.000
64.72566 664.000
64.82617 701.000
64.92668 687.000
65.02718 663.000
65.12769 661.000
65.22820 691.000
65.32870 711.000
65.42921 654.000
65.52972 680.000
65.63023 685.000
65.73073 675.000
65.83124 669.000
65.93175 698.000
66.03225 675.000
66.13276 698.000
66.23327 753.000
66.33377 729.000
66.43428 772.000
66.53479 772.000
66.63529 788.000
66.73580 685.000
66.83631 740.000
66.93681 718.000
67.03732 665.000
67.13783 729.000
67.23834 704.000
67.33884 719.000
67.43935 738.000
67.53986 788.000
67.64036 789.000
67.74087 806.000
67.84138 805.000
67.94188 869.000
68.04239 863.000
68.14290 903.000
68.24340 912.000
68.34391 879.000
68.44442 961.000
68.54492 1040.000
68.64543 1078.000
68.74594 1107.000
68.84645 1176.000
68.94695 1208.000
69.04746 1264.000
69.14797 1235.000
69.24847 1237.000
69.34898 1318.000
69.44949 1219.000
69.54999 1215.000
69.65050 1200.000
69.75101 1214.000
69.85151 1121.000
69.95202 1130.000
70.05253 1091.000
70.15304 970.000
70.25354 943.000
70.35405 940.000
70.45456 854.000
70.55506 876.000
70.65557 794.000
70.75608 862.000
70.85658 783.000
70.95709 760.000
71.05760 724.000
71.15810 773.000
71.25861 700.000
71.35912 701.000
71.45962 658.000
71.56013 699.000
71.66064 691.000
71.76115 671.000
71.86165 672.000
71.96216 673.000
72.06267 627.000
72.16317 645.000
72.26368 670.000
72.36419 624.000
72.46469 638.000
72.56520 694.000
72.66571 661.000
72.76621 729.000
72.86672 686.000
72.96723 687.000
73.06773 690.000
73.16824 664.000
73.26875 764.000
73.36926 742.000
73.46976 696.000
73.57027 745.000
73.67078 720.000
73.77128 724.000
73.87179 806.000
73.97230 803.000
74.07280 762.000
74.17331 794.000
74.27382 822.000
74.37432 788.000
74.47483 848.000
74.57534 874.000
74.67584 882.000
74.77635 939.000
74.87686 922.000
74.97737 947.000
75.07787 982.000
75.17838 1018.000
75.27889 1082.000
75.37939 1149.000
75.47990 1181.000
75.58041 1185.000
75.68091 1220.000
75.78142 1291.000
75.88193 1371.000
75.98243 1359.000
76.08294 1475.000
76.18345 1585.000
76.28396 1536.000
76.38446 1565.000
76.48497 1532.000
76.58548 1641.000
76.68598 1704.000
76.78649 1630.000
76.88700 1557.000
76.98750 1677.000
77.08801 1580.000
77.18852 1637.000
77.28902 1505.000
77.38953 1462.000
77.49004 1457.000
77.59054 1526.000
77.69105 1443.000
77.79156 1411.000
77.89207 1391.000
77.99257 1483.000
78.09308 1448.000
78.19359 1396.000
78.29409 1444.000
78.39460 1415.000
78.49511 1444.000
78.59561 1341.000
78.69612 1419.000
78.79663 1415.000
78.89713 1443.000
78.99764 1416.000
79.09815 1380.000
79.19865 1361.000
79.29916 1320.000
79.39967 1284.000
79.50018 1244.000
79.60068 1253.000
79.70119 1230.000
79.80170 1181.000
79.90220 1172.000
80.00271 1036.000
80.10322 1041.000
80.20372 1003.000
80.30423 989.000
80.40474 934.000
80.50524 848.000
80.60575 900.000
80.70626 824.000
80.80676 817.000
80.90727 790.000
81.00778 778.000
81.10829 764.000
81.20879 769.000
81.30930 767.000
81.40981 761.000
81.51031 765.000
81.61082 702.000
81.71133 699.000
81.81183 708.000
81.91234 693.000
82.01285 724.000
82.11335 637.000
82.21386 700.000
82.31437 673.000
82.41487 625.000
82.51538 675.000
82.61589 693.000
82.71640 644.000
82.81690 643.000
82.91741 670.000
83.01792 684.000
83.11842 633.000
83.21893 665.000
83.31944 634.000
83.41994 668.000
83.52045 665.000
83.62096 633.000
83.72146 620.000
83.82197 663.000
83.92248 691.000
84.02299 654.000
84.12349 661.000
84.22400 678.000
84.32451 642.000
84.42501 661.000
84.52552 675.000
84.62603 695.000
84.72653 698.000
84.82704 665.000
84.92755 637.000
85.02805 704.000
85.12856 712.000
85.22907 729.000
85.32957 699.000
85.43008 739.000
85.53059 749.000
85.63110 730.000
85.73160 744.000
85.83211 750.000
85.93262 822.000
86.03312 781.000
86.13363 877.000
86.23414 801.000
86.33464 832.000
86.43515 895.000
86.53566 905.000
86.63616 939.000
86.73667 967.000
86.83718 996.000
86.93768 1056.000
87.03819 999.000
87.13870 1042.000
87.23921 1053.000
87.33971 1114.000
87.44022 1154.000
87.54073 1123.000
87.64123 1175.000
87.74174 1210.000
87.84225 1190.000
87.94275 1283.000
88.04326 1304.000
88.14377 1301.000
88.24427 1309.000
88.34478 1309.000
88.44529 1278.000
88.54579 1342.000
88.64630 1251.000
88.74681 1347.000
88.84732 1251.000
88.94782 1224.000
89.04833 1135.000
89.14884 1157.000
89.24934 1125.000
89.34985 1098.000
89.45036 1005.000
89.55086 969.000
89.65137 1067.000
89.75188 924.000
89.85238 995.000
89.95289 956.000
90.05340 896.000
90.15391 913.000
90.25441 837.000
90.35492 872.000
90.45543 868.000
90.55593 830.000
90.65644 795.000
90.75695 774.000
90.85745 773.000
90.95796 806.000
91.05847 760.000
91.15897 732.000
91.25948 763.000
91.35999 748.000
91.46049 730.000
91.56100 777.000
91.66151 706.000
91.76202 711.000
91.86252 756.000
91.96303 731.000
92.06354 745.000
92.16404 764.000
92.26455 769.000
92.36506 734.000
92.46556 749.000
92.56607 742.000
92.66658 739.000
92.76708 755.000
92.86759 806.000
92.96810 817.000
93.06860 787.000
93.16911 804.000
93.26962 820.000
93.37013 843.000
93.47063 858.000
93.57114 928.000
93.67165 928.000
93.77215 863.000
93.87266 946.000
93.97317 936.000
94.07367 983.000
94.17418 1033.000
94.27469 1063.000
94.37519 1067.000
94.47570 1175.000
94.57621 1140.000
94.67671 1157.000
94.77722 1164.000
94.87773 1204.000
94.97824 1244.000
95.07874 1232.000
95.17925 1209.000
95.27976 1248.000
95.38026 1202.000
95.48077 1191.000
95.58128 1202.000
95.68178 1186.000
95.78229 1233.000
95.88280 1230.000
95.98330 1178.000
96.08381 1069.000
96.18432 1110.000
96.28482 1063.000
96.38533 1027.000
96.48584 964.000
96.58635 994.000
96.68685 946.000
96.78736 915.000
96.88787 873.000
96.98837 873.000
97.08888 797.000
97.18939 882.000
97.28989 771.000
97.39040 754.000
97.49091 733.000
97.59141 711.000
97.69192 720.000
97.79243 668.000
97.89294 719.000
97.99344 721.000
98.09395 680.000
98.19446 709.000
98.29496 672.000
98.39547 730.000
98.49598 646.000
98.59648 667.000
98.69699 633.000
98.79750 635.000
98.89800 639.000
98.99851 620.000
99.09902 629.000
99.19952 587.000
99.30003 647.000
99.40054 625.000
99.50105 615.000
99.60155 576.000
99.70206 576.000
99.80257 604.000
99.90307 577.000
100.00358 644.000
100.10409 626.000
100.20459 579.000
100.30510 575.000
100.40561 596.000
100.50611 578.000
100.60662 598.000
100.70713 562.000
100.80763 561.000
100.90814 592.000
101.00865 550.000
101.10916 646.000
101.20966 586.000
101.31017 628.000
101.41068 613.000
101.51118 578.000
101.61169 585.000
101.71220 557.000
101.81270 595.000
101.91321 578.000
102.01372 611.000
102.11422 578.000
102.21473 560.000
102.31524 602.000
102.41574 609.000
102.51625 611.000
102.61676 581.000
102.71727 582.000
102.81777 568.000
102.91828 597.000
103.01879 545.000
103.11929 624.000
103.21980 583.000
103.32031 587.000
103.42081 627.000
103.52132 628.000
103.62183 627.000
103.72233 588.000
103.82284 621.000
103.92335 609.000
104.02386 639.000
104.12436 656.000
104.22487 593.000
104.32538 610.000
104.42588 647.000
104.52639 622.000
104.62690 637.000
104.72740 670.000
104.82791 672.000
104.92842 675.000
105.02892 665.000
105.12943 710.000
105.22994 701.000
105.33044 684.000
105.43095 685.000
105.53146 783.000
105.63197 719.000
105.73247 738.000
105.83298 759.000
105.93349 750.000
106.03399 753.000
106.13450 757.000
106.23501 771.000
106.33551 775.000
106.43602 787.000
106.53653 774.000
106.63703 855.000
106.73754 794.000
106.83805 829.000
106.93855 847.000
107.03906 822.000
107.13957 867.000
107.24008 867.000
107.34058 846.000
107.44109 780.000
107.54160 810.000
107.64210 872.000
107.74261 867.000
107.84312 810.000
107.94362 854.000
108.04413 744.000
108.14464 779.000
108.24514 758.000
108.34565 791.000
108.44616 772.000
108.54666 730.000
108.64717 766.000
108.74768 730.000
108.84819 763.000
108.94869 800.000
109.04920 772.000
109.14971 799.000
109.25021 828.000
109.35072 751.000
109.45123 773.000
109.55173 757.000
109.65224 766.000
109.75275 742.000
109.85325 737.000
109.95376 754.000
110.05427 785.000
110.15477 725.000
110.25528 778.000
110.35579 777.000
110.45630 781.000
110.55680 728.000
110.65731 746.000
110.75782 793.000
110.85832 781.000
110.95883 832.000
111.05934 764.000
111.15984 796.000
111.26035 802.000
111.36086 851.000
111.46136 850.000
111.56187 819.000
111.66238 822.000
111.76289 893.000
111.86339 910.000
111.96390 907.000
112.06441 968.000
112.16491 928.000
112.26542 909.000
112.36593 982.000
112.46643 996.000
112.56694 1005.000
112.66745 1058.000
112.76795 1002.000
112.86846 1046.000
112.96897 1072.000
113.06947 1130.000
113.16998 1082.000
113.27049 1108.000
113.37100 1217.000
113.47150 1183.000
113.57201 1207.000
113.67252 1208.000
113.77302 1242.000
113.87353 1221.000
113.97404 1307.000
114.07454 1344.000
114.17505 1330.000
114.27556 1285.000
114.37606 1353.000
114.47657 1370.000
114.57708 1367.000
114.67758 1423.000
114.77809 1330.000
114.87860 1444.000
114.97911 1372.000
115.07961 1339.000
115.18012 1339.000
115.28063 1382.000
115.38113 1328.000
115.48164 1334.000
115.58215 1338.000
115.68265 1314.000
115.78316 1336.000
115.88367 1352.000
115.98417 1329.000
116.08468 1342.000
116.18519 1249.000
116.28569 1253.000
116.38620 1253.000
116.48671 1221.000
116.58722 1258.000
116.68772 1239.000
116.78823 1204.000
116.88874 1214.000
116.98924 1130.000
117.08975 1172.000
117.19026 1177.000
117.29076 1202.000
117.39127 1132.000
117.49178 1116.000
117.59228 1125.000
117.69279 1081.000
117.79330 1076.000
117.89381 1101.000
117.99431 1068.000
118.09482 1035.000
118.19533 1094.000
118.29583 1021.000
118.39634 1008.000
118.49685 1002.000
118.59735 981.000
118.69786 1007.000
118.79837 950.000
118.89887 937.000
118.99938 900.000
119.09989 927.000
119.20039 900.000
119.30090 870.000
119.40141 844.000
119.50192 889.000
119.60242 870.000
119.70293 805.000
119.80344 904.000
119.90394 836.000
120.00445 829.000
120.10496 780.000
120.20546 749.000
120.30597 779.000
120.40648 749.000
120.50698 772.000
120.60749 811.000
120.70800 823.000
120.80850 800.000
120.90901 732.000
121.00952 739.000
121.11003 774.000
121.21053 771.000
121.31104 757.000
121.41155 752.000
121.51205 725.000
121.61256 759.000
121.71307 749.000
121.81357 716.000
121.91408 727.000
122.01459 779.000
122.11509 732.000
122.21560 761.000
122.31611 689.000
122.41661 742.000
122.51712 658.000
122.61763 761.000
122.71814 767.000
122.81864 738.000
122.91915 683.000
123.01966 716.000
