20.00010 8279.000
20.10061 8213.000
20.20111 8328.000
20.30162 8722.000
20.40213 11778.000
20.50263 15085.000
20.60314 17323.000
20.70365 17163.000
20.80416 16322.000
20.90466 15722.000
21.00517 15353.000
21.10568 14786.000
21.20618 14192.000
21.30669 13795.000
21.40720 13679.000
21.50770 12987.000
21.60821 12465.000
21.70872 12211.000
21.80922 11790.000
21.90973 11531.000
22.01024 11028.000
22.11074 10322.000
22.21125 9931.000
22.31176 9574.000
22.41227 9427.000
22.51277 8930.000
22.61328 8958.000
22.71379 8886.000
22.81429 9073.000
22.91480 8867.000
23.01531 8726.000
23.11581 8753.000
23.21632 8900.000
23.31683 8784.000
23.41733 8728.000
23.51784 8787.000
23.61835 8703.000
23.71885 8582.000
23.81936 8493.000
23.91987 8522.000
24.02038 8619.000
24.12088 8509.000
24.22139 8472.000
24.32190 8390.000
24.42240 8229.000
24.52291 8082.000
24.62342 8041.000
24.72392 7792.000
24.82443 7835.000
24.92494 7616.000
25.02544 7528.000
25.12595 7436.000
25.22646 7177.000
25.32696 7384.000
25.42747 7102.000
25.52798 7015.000
25.62849 6991.000
25.72899 6863.000
25.82950 6825.000
25.93001 6799.000
26.03051 6669.000
26.13102 6690.000
26.23153 6719.000
26.33203 6715.000
26.43254 6540.000
26.53305 6670.000
26.63355 6484.000
26.73406 6769.000
26.83457 6728.000
26.93507 6748.000
27.03558 6979.000
27.13609 7154.000
27.23660 7481.000
27.33710 7402.000
27.43761 7851.000
27.53812 8237.000
27.63862 8736.000
27.73913 9072.000
27.83964 10080.000
27.94014 10863.000
28.04065 11749.000
28.14116 12824.000
28.24166 14139.000
28.34217 15061.000
28.44268 15766.000
28.54319 16037.000
28.64369 16258.000
28.74420 15772.000
28.84471 14294.000
28.94521 13321.000
29.04572 12107.000
29.14623 10656.000
29.24673 9435.000
29.34724 8700.000
29.44775 7875.000
29.54825 7381.000
29.64876 6716.000
29.74927 6327.000
29.84977 6227.000
29.95028 5937.000
30.05079 5651.000
30.15130 5323.000
30.25180 4980.000
30.35231 4667.000
30.45282 4466.000
30.55332 4081.000
30.65383 3727.000
30.75434 3554.000
30.85484 3330.000
30.95535 2970.000
31.05586 2844.000
31.15636 2765.000
31.25687 2819.000
31.35738 2690.000
31.45788 2881.000
31.55839 2778.000
31.65890 2791.000
31.75941 2781.000
31.85991 2780.000
31.96042 2903.000
32.06093 2875.000
32.16143 3039.000
32.26194 3105.000
32.36245 3352.000
32.46295 3489.000
32.56346 4053.000
32.66397 4300.000
32.76447 4839.000
32.86498 5195.000
32.96549 5405.000
33.06599 5555.000
33.16650 5568.000
33.26701 5315.000
33.36752 4946.000
33.46802 4654.000
33.56853 4348.000
33.66904 4197.000
33.76954 4034.000
33.87005 4031.000
33.97056 4018.000
34.07106 4011.000
34.17157 4125.000
34.27208 4104.000
34.37258 4207.000
34.47309 3927.000
34.57360 3888.000
34.67411 3868.000
34.77461 3875.000
34.87512 3749.000
34.97563 3601.000
35.07613 3630.000
35.17664 3512.000
35.27715 3488.000
35.37765 3558.000
35.47816 3539.000
35.57867 3514.000
35.67917 3312.000
35.77968 3269.000
35.88019 3176.000
35.98069 3100.000
36.08120 3057.000
36.18171 3057.000
36.28222 2959.000
36.38272 2957.000
36.48323 2899.000
36.58374 2876.000
36.68424 2810.000
36.78475 2777.000
36.88526 2843.000
36.98576 2752.000
37.08627 2744.000
37.18678 2632.000
37.28728 2640.000
37.38779 2729.000
37.48830 2617.000
37.58880 2698.000
37.68931 2624.000
37.78982 2676.000
37.89033 2661.000
37.99083 2622.000
38.09134 2546.000
38.19185 2374.000
38.29235 2453.000
38.39286 2532.000
38.49337 2410.000
38.59387 2448.000
38.69438 2460.000
38.79489 2405.000
38.89539 2317.000
38.99590 2195.000
39.09641 2079.000
39.19691 1995.000
39.29742 1926.000
39.39793 1837.000
39.49844 1644.000
39.59894 1566.000
39.69945 1425.000
39.79996 1417.000
39.90046 1386.000
40.00097 1312.000
40.10148 1289.000
40.20198 1230.000
40.30249 1193.000
40.40300 1194.000
40.50350 1236.000
40.60401 1179.000
40.70452 1111.000
40.80502 1086.000
40.90553 1123.000
41.00604 1085.000
41.10655 1109.000
41.20705 1133.000
41.30756 1068.000
41.40807 1109.000
41.50857 1051.000
41.60908 1093.000
41.70959 1080.000
41.81009 1114.000
41.91060 1109.000
42.01111 1075.000
42.11161 1120.000
42.21212 1004.000
42.31263 1095.000
42.41314 1183.000
42.51364 1075.000
42.61415 1107.000
42.71466 1115.000
42.81516 1092.000
42.91567 1084.000
43.01618 1198.000
43.11668 1116.000
43.21719 1097.000
43.31770 1104.000
43.41820 1145.000
43.51871 1107.000
43.61922 1110.000
43.71972 1133.000
43.82023 1112.000
43.92074 1145.000
44.02125 1124.000
44.12175 1136.000
44.22226 1165.000
44.32277 1134.000
44.42327 1185.000
44.52378 1228.000
44.62429 1242.000
44.72479 1203.000
44.82530 1244.000
44.92581 1249.000
45.02631 1232.000
45.12682 1366.000
45.22733 1364.000
45.32783 1407.000
45.42834 1481.000
45.52885 1565.000
45.62936 1653.000
45.72986 1648.000
45.83037 1760.000
45.93088 1965.000
46.03138 2024.000
46.13189 2193.000
46.23240 2367.000
46.33290 2598.000
46.43341 2697.000
46.53392 3002.000
46.63442 3339.000
46.73493 3726.000
46.83544 4000.000
46.93594 4285.000
47.03645 4656.000
47.13696 5068.000
47.23747 5200.000
47.33797 5448.000
47.43848 5637.000
47.53899 5501.000
47.63949 5493.000
47.74000 5267.000
47.84051 4987.000
47.94101 4624.000
48.04152 4207.000
48.14203 4001.000
48.24253 3554.000
48.34304 3246.000
48.44355 2898.000
48.54406 2599.000
48.64456 2436.000
48.74507 2184.000
48.84558 1996.000
48.94608 1958.000
49.04659 1787.000
49.14710 1568.000
49.24760 1633.000
49.34811 1488.000
49.44862 1469.000
49.54912 1407.000
49.64963 1341.000
49.75014 1231.000
49.85064 1253.000
49.95115 1220.000
50.05166 1236.000
50.15217 1181.000
50.25267 1190.000
50.35318 1148.000
50.45369 1147.000
50.55419 1140.000
50.65470 1120.000
50.75521 1037.000
50.85571 1073.000
50.95622 1132.000
51.05673 1035.000
51.15723 1032.000
51.25774 1001.000
51.35825 1023.000
51.45875 1034.000
51.55926 957.000
51.65977 987.000
51.76028 1005.000
51.86078 914.000
51.96129 992.000
52.06180 942.000
52.16230 1018.000
52.26281 1005.000
52.36332 1002.000
52.46382 974.000
52.56433 1012.000
52.66484 1001.000
52.76534 973.000
52.86585 993.000
52.96636 998.000
53.06686 1024.000
53.16737 1061.000
53.26788 1086.000
53.36839 1136.000
53.46889 1156.000
53.56940 1106.000
53.66991 1137.000
53.77041 1194.000
53.87092 1169.000
53.97143 1200.000
54.07193 1287.000
54.17244 1260.000
54.27295 1385.000
54.37345 1359.000
54.47396 1442.000
54.57447 1520.000
54.67497 1534.000
54.77548 1648.000
54.87599 1744.000
54.97650 1954.000
55.07700 2065.000
55.17751 2142.000
55.27802 2300.000
55.37852 2537.000
55.47903 2705.000
55.57954 2947.000
55.68004 3163.000
55.78055 3412.000
55.88106 3594.000
55.98156 3862.000
56.08207 4042.000
56.18258 4085.000
56.28309 4132.000
56.38359 4248.000
56.48410 4217.000
56.58461 4064.000
56.68511 3774.000
56.78562 3628.000
56.88613 3316.000
56.98663 3066.000
57.08714 2833.000
57.18765 2635.000
57.28815 2409.000
57.38866 2221.000
57.48917 2087.000
57.58967 1974.000
57.69018 1846.000
57.79069 1843.000
57.89120 1697.000
57.99170 1561.000
58.09221 1640.000
58.19272 1588.000
58.29322 1508.000
58.39373 1582.000
58.49424 1516.000
58.59474 1442.000
58.69525 1399.000
58.79576 1470.000
58.89626 1357.000
58.99677 1384.000
59.09728 1424.000
59.19778 1419.000
59.29829 1394.000
59.39880 1395.000
59.49931 1213.000
59.59981 1291.000
59.70032 1280.000
59.80083 1215.000
59.90133 1104.000
60.00184 1061.000
60.10235 1043.000
60.20285 1062.000
60.30336 980.000
60.40387 941.000
60.50437 949.000
60.60488 948.000
60.70539 910.000
60.80589 848.000
60.90640 926.000
61.00691 861.000
61.10742 876.000
61.20792 816.000
61.30843 813.000
61.40894 830.000
61.50944 822.000
61.60995 824.000
61.71046 845.000
61.81096 783.000
61.91147 781.000
62.01198 726.000
62.11248 755.000
62.21299 722.000
62.31350 727.000
62.41401 751.000
62.51451 739.000
62.61502 754.000
62.71553 734.000
62.81603 744.000
62.91654 686.000
63.01705 698.000
63.11755 757.000
63.21806 690.000
63.31857 680.000
63.41907 760.000
63.51958 694.000
63.62009 726.000
63.72059 674.000
63.82110 720.000
63.92161 664.000
64.02212 685.000
64.12262 666.000
64.22313 640.000
64.32364 632.000
64.42414 682.000
64.52465 681.000
64.62516 677.000
64.72566 635.000
64.82617 641.000
64.92668 659.000
65.02718 660.000
65.12769 677.000
65.22820 676.000
65.32870 664.000
65.42921 641.000
65.52972 673.000
65.63023 701.000
65.73073 644.000
65.83124 662.000
65.93175 666.000
66.03225 747.000
66.13276 726.000
66.23327 716.000
66.33377 728.000
66.43428 745.000
66.53479 760.000
66.63529 722.000
66.73580 776.000
66.83631 746.000
66.93681 694.000
67.03732 730.000
67.13783 686.000
67.23834 736.000
67.33884 719.000
67.43935 737.000
67.53986 743.000
67.64036 804.000
67.74087 736.000
67.84138 813.000
67.94188 834.000
68.04239 929.000
68.14290 840.000
68.24340 869.000
68.34391 980.000
68.44442 1013.000
68.54492 1034.000
68.64543 1056.000
68.74594 1062.000
68.84645 1157.000
68.94695 1166.000
69.04746 1193.000
69.14797 1252.000
69.24847 1335.000
69.34898 1338.000
69.44949 1267.000
69.54999 1277.000
69.65050 1208.000
69.75101 1210.000
69.85151 1152.000
69.95202 1124.000
70.05253 1048.000
70.15304 967.000
70.25354 939.000
70.35405 903.000
70.45456 857.000
70.55506 857.000
70.65557 817.000
70.75608 737.000
70.85658 705.000
70.95709 794.000
71.05760 702.000
71.15810 673.000
71.25861 730.000
71.35912 691.000
71.45962 662.000
71.56013 705.000
71.66064 655.000
71.76115 674.000
71.86165 688.000
71.96216 692.000
72.06267 722.000
72.16317 706.000
72.26368 648.000
72.36419 695.000
72.46469 707.000
72.56520 637.000
72.66571 683.000
72.76621 709.000
72.86672 668.000
72.96723 685.000
73.06773 717.000
73.16824 726.000
73.26875 682.000
73.36926 674.000
73.46976 721.000
73.57027 735.000
73.67078 710.000
73.77128 728.000
73.87179 765.000
73.97230 809.000
74.07280 770.000
74.17331 845.000
74.27382 812.000
74.37432 798.000
74.47483 873.000
74.57534 844.000
74.67584 865.000
74.77635 967.000
74.87686 931.000
74.97737 1013.000
75.07787 1065.000
75.17838 1030.000
75.27889 1051.000
75.37939 1132.000
75.47990 1144.000
75.58041 1243.000
75.68091 1205.000
75.78142 1279.000
75.88193 1341.000
75.98243 1403.000
76.08294 1387.000
76.18345 1451.000
76.28396 1542.000
76.38446 1628.000
76.48497 1637.000
76.58548 1569.000
76.68598 1622.000
76.78649 1716.000
76.88700 1589.000
76.98750 1619.000
77.08801 1621.000
77.18852 1602.000
77.28902 1531.000
77.38953 1519.000
77.49004 1504.000
77.59054 1514.000
77.69105 1446.000
77.79156 1454.000
77.89207 1387.000
77.99257 1463.000
78.09308 1378.000
78.19359 1406.000
78.29409 1430.000
78.39460 1379.000
78.49511 1517.000
78.59561 1427.000
78.69612 1466.000
78.79663 1411.000
78.89713 1410.000
78.99764 1368.000
79.09815 1423.000
79.19865 1387.000
79.29916 1325.000
79.39967 1266.000
79.50018 1308.000
79.60068 1240.000
79.70119 1206.000
79.80170 1086.000
79.90220 1069.000
80.00271 1079.000
80.10322 957.000
80.20372 957.000
80.30423 997.000
80.40474 961.000
80.50524 938.000
80.60575 900.000
80.70626 794.000
80.80676 885.000
80.90727 833.000
81.00778 792.000
81.10829 796.000
81.20879 740.000
81.30930 738.000
81.40981 740.000
81.51031 755.000
81.61082 713.000
81.71133 745.000
81.81183 713.000
81.91234 703.000
82.01285 688.000
82.11335 644.000
82.21386 645.000
82.31437 690.000
82.41487 698.000
82.51538 663.000
82.61589 692.000
82.71640 650.000
82.81690 661.000
82.91741 676.000
83.01792 663.000
83.11842 652.000
83.21893 713.000
83.31944 665.000
83.41994 672.000
83.52045 636.000
83.62096 657.000
83.72146 677.000
83.82197 641.000
83.92248 644.000
84.02299 648.000
84.12349 659.000
84.22400 679.000
84.32451 636.000
84.42501 695.000
84.52552 634.000
84.62603 699.000
84.72653 696.000
84.82704 700.000
84.92755 686.000
85.02805 658.000
85.12856 685.000
85.22907 714.000
85.32957 742.000
85.43008 716.000
85.53059 753.000
85.63110 727.000
85.73160 766.000
85.83211 792.000
85.93262 763.000
86.03312 844.000
86.13363 839.000
86.23414 840.000
86.33464 799.000
86.43515 827.000
86.53566 806.000
86.63616 910.000
86.73667 943.000
86.83718 974.000
86.93768 926.000
87.03819 1004.000
87.13870 1033.000
87.23921 1074.000
87.33971 1004.000
87.44022 1127.000
87.54073 1166.000
87.64123 1242.000
87.74174 1209.000
87.84225 1228.000
87.94275 1266.000
88.04326 1312.000
88.14377 1301.000
88.24427 1317.000
88.34478 1268.000
88.44529 1296.000
88.54579 1280.000
88.64630 1281.000
88.74681 1209.000
88.84732 1256.000
88.94782 1165.000
89.04833 1184.000
89.14884 1191.000
89.24934 1053.000
89.34985 1055.000
89.45036 1098.000
89.55086 1049.000
89.65137 973.000
89.75188 946.000
89.85238 896.000
89.95289 912.000
90.05340 937.000
90.15391 843.000
90.25441 873.000
90.35492 842.000
90.45543 831.000
90.55593 771.000
90.65644 808.000
90.75695 778.000
90.85745 736.000
90.95796 809.000
91.05847 785.000
91.15897 768.000
91.25948 726.000
91.35999 783.000
91.46049 787.000
91.56100 734.000
91.66151 748.000
91.76202 732.000
91.86252 716.000
91.96303 747.000
92.06354 740.000
92.16404 763.000
92.26455 807.000
92.36506 776.000
92.46556 758.000
92.56607 775.000
92.66658 745.000
92.76708 730.000
92.86759 838.000
92.96810 782.000
93.06860 789.000
93.16911 844.000
93.26962 863.000
93.37013 870.000
93.47063 871.000
93.57114 926.000
93.67165 905.000
93.77215 918.000
93.87266 950.000
93.97317 949.000
94.07367 967.000
94.17418 1047.000
94.27469 1044.000
94.37519 1097.000
94.47570 1084.000
94.57621 1155.000
94.67671 1191.000
94.77722 1192.000
94.87773 1181.000
94.97824 1214.000
95.07874 1264.000
95.17925 1242.000
95.27976 1227.000
95.38026 1205.000
95.48077 1257.000
95.58128 1190.000
95.68178 1206.000
95.78229 1176.000
95.88280 1077.000
95.98330 1145.000
96.08381 1101.000
96.18432 1073.000
96.28482 1066.000
96.38533 1029.000
96.48584 984.000
96.58635 904.000
96.68685 908.000
96.78736 876.000
96.88787 895.000
96.98837 818.000
97.08888 863.000
97.18939 794.000
97.28989 798.000
97.39040 785.000
97.49091 792.000
97.59141 775.000
97.69192 772.000
97.79243 725.000
97.89294 668.000
97.99344 693.000
98.09395 713.000
98.19446 656.000
98.29496 720.000
98.39547 651.000
98.49598 619.000
98.59648 670.000
98.69699 641.000
98.79750 614.000
98.89800 609.000
98.99851 617.000
99.09902 658.000
99.19952 624.000
99.30003 619.000
99.40054 570.000
99.50105 604.000
99.60155 614.000
99.70206 571.000
99.80257 573.000
99.90307 610.000
100.00358 593.000
100.10409 551.000
100.20459 571.000
100.30510 586.000
100.40561 599.000
100.50611 604.000
100.60662 608.000
100.70713 604.000
100.80763 622.000
100.90814 612.000
101.00865 565.000
101.10916 543.000
101.20966 610.000
101.31017 598.000
101.41068 596.000
101.51118 607.000
101.61169 595.000
101.71220 561.000
101.81270 549.000
101.91321 559.000
102.01372 567.000
102.11422 553.000
102.21473 612.000
102.31524 612.000
102.41574 581.000
102.51625 602.000
102.61676 573.000
102.71727 582.000
102.81777 602.000
102.91828 622.000
103.01879 614.000
103.11929 617.000
103.21980 644.000
103.32031 616.000
103.42081 616.000
103.52132 605.000
103.62183 619.000
103.72233 619.000
103.82284 614.000
103.92335 594.000
104.02386 604.000
104.12436 653.000
104.22487 663.000
104.32538 631.000
104.42588 668.000
104.52639 637.000
104.62690 643.000
104.72740 660.000
104.82791 711.000
104.92842 677.000
105.02892 629.000
105.12943 682.000
105.22994 726.000
105.33044 740.000
105.43095 719.000
105.53146 695.000
105.63197 677.000
105.73247 705.000
105.83298 782.000
105.93349 772.000
106.03399 794.000
106.13450 769.000
106.23501 791.000
106.33551 770.000
106.43602 800.000
106.53653 782.000
106.63703 810.000
106.73754 838.000
106.83805 808.000
106.93855 850.000
107.03906 796.000
107.13957 835.000
107.24008 834.000
107.34058 858.000
107.44109 821.000
107.54160 790.000
107.64210 827.000
107.74261 819.000
107.84312 851.000
107.94362 814.000
108.04413 824.000
108.14464 779.000
108.24514 804.000
108.34565 776.000
108.44616 816.000
108.54666 779.000
108.64717 779.000
108.74768 788.000
108.84819 819.000
108.94869 814.000
109.04920 751.000
109.14971 771.000
109.25021 795.000
109.35072 755.000
109.45123 749.000
109.55173 791.000
109.65224 786.000
109.75275 776.000
109.85325 807.000
109.95376 809.000
110.05427 742.000
110.15477 750.000
110.25528 780.000
110.35579 778.000
110.45630 752.000
110.55680 782.000
110.65731 731.000
110.75782 795.000
110.85832 782.000
110.95883 796.000
111.05934 788.000
111.15984 845.000
111.26035 797.000
111.36086 876.000
111.46136 838.000
111.56187 814.000
111.66238 853.000
111.76289 828.000
111.86339 853.000
111.96390 919.000
112.06441 924.000
112.16491 913.000
112.26542 948.000
112.36593 971.000
112.46643 1011.000
112.56694 1017.000
112.66745 1089.000
112.76795 1044.000
112.86846 1093.000
112.96897 1070.000
113.06947 1084.000
113.16998 1052.000
113.27049 1183.000
113.37100 1151.000
113.47150 1145.000
113.57201 1295.000
113.67252 1200.000
113.77302 1279.000
113.87353 1303.000
113.97404 1268.000
114.07454 1297.000
114.17505 1290.000
114.27556 1380.000
114.37606 1319.000
114.47657 1326.000
114.57708 1319.000
114.67758 1314.000
114.77809 1379.000
114.87860 1386.000
114.97911 1338.000
115.07961 1307.000
115.18012 1345.000
115.28063 1342.000
115.38113 1368.000
115.48164 1387.000
115.58215 1370.000
115.68265 1325.000
115.78316 1301.000
115.88367 1357.000
115.98417 1278.000
116.08468 1315.000
116.18519 1270.000
116.28569 1256.000
116.38620 1257.000
116.48671 1180.000
116.58722 1263.000
116.68772 1256.000
116.78823 1168.000
116.88874 1150.000
116.98924 1136.000
117.08975 1201.000
117.19026 1152.000
117.29076 1047.000
117.39127 1141.000
117.49178 1180.000
117.59228 1076.000
117.69279 1105.000
117.79330 1070.000
117.89381 1073.000
117.99431 1063.000
118.09482 1073.000
118.19533 971.000
118.29583 1036.000
118.39634 1008.000
118.49685 962.000
118.59735 955.000
118.69786 987.000
118.79837 865.000
118.89887 889.000
118.99938 890.000
119.09989 919.000
119.20039 878.000
119.30090 847.000
119.40141 809.000
119.50192 887.000
119.60242 800.000
119.70293 827.000
119.80344 810.000
119.90394 846.000
120.00445 836.000
120.10496 782.000
120.20546 859.000
120.30597 771.000
120.40648 735.000
120.50698 826.000
120.60749 716.000
120.70800 823.000
120.80850 750.000
120.90901 786.000
121.00952 781.000
121.11003 749.000
121.21053 765.000
121.31104 756.000
121.41155 722.000
121.51205 740.000
121.61256 745.000
121.71307 708.000
121.81357 761.000
121.91408 768.000
122.01459 779.000
122.11509 746.000
122.21560 728.000
122.31611 689.000
122.41661 768.000
122.51712 753.000
122.61763 740.000
122.71814 760.000
122.81864 723.000
122.91915 720.000
123.01966 750.000
