20.00010 8304.000
20.10061 8013.000
20.20111 8024.000
20.30162 8510.000
20.40213 11736.000
20.50263 15010.000
20.60314 17139.000
20.70365 17085.000
20.80416 16274.000
20.90466 15777.000
21.00517 15074.000
21.10568 14744.000
21.20618 14230.000
21.30669 13684.000
21.40720 13288.000
21.50770 13071.000
21.60821 12554.000
21.70872 11918.000
21.80922 11710.000
21.90973 11254.000
22.01024 10752.000
22.11074 10218.000
22.21125 10045.000
22.31176 9475.000
22.41227 9257.000
22.51277 8693.000
22.61328 8674.000
22.71379 8716.000
22.81429 8652.000
22.91480 8719.000
23.01531 8672.000
23.11581 8571.000
23.21632 8669.000
23.31683 8513.000
23.41733 8676.000
23.51784 8536.000
23.61835 8505.000
23.71885 8607.000
23.81936 8414.000
23.91987 8380.000
24.02038 8542.000
24.12088 8299.000
24.22139 8239.000
24.32190 8182.000
24.42240 8123.000
24.52291 8102.000
24.62342 7766.000
24.72392 7843.000
24.82443 7522.000
24.92494 7407.000
25.02544 7160.000
25.12595 7308.000
25.22646 7142.000
25.32696 7133.000
25.42747 6978.000
25.52798 6753.000
25.62849 6843.000
25.72899 6813.000
25.82950 6600.000
25.93001 6636.000
26.03051 6408.000
26.13102 6421.000
26.23153 6516.000
26.33203 6517.000
26.43254 6361.000
26.53305 6507.000
26.63355 6602.000
26.73406 6496.000
26.83457 6676.000
26.93507 6695.000
27.03558 6894.000
27.13609 7060.000
27.23660 7164.000
27.33710 7585.000
27.43761 7698.000
27.53812 8135.000
27.63862 8770.000
27.73913 9228.000
27.83964 10045.000
27.94014 10989.000
28.04065 11852.000
28.14116 12994.000
28.24166 13912.000
28.34217 15158.000
28.44268 15864.000
28.54319 16172.000
28.64369 16028.000
28.74420 15324.000
28.84471 14048.000
28.94521 12875.000
29.04572 11477.000
29.14623 10231.000
29.24673 9172.000
29.34724 8293.000
29.44775 7662.000
29.54825 7026.000
29.64876 6510.000
29.74927 6182.000
29.84977 5942.000
29.95028 5698.000
30.05079 5425.000
30.15130 5050.000
30.25180 4917.000
30.35231 4523.000
30.45282 4259.000
30.55332 4007.000
30.65383 3719.000
30.75434 3519.000
30.85484 2999.000
30.95535 2877.000
31.05586 2730.000
31.15636 2761.000
31.25687 2638.000
31.35738 2668.000
31.45788 2626.000
31.55839 2619.000
31.65890 2700.000
31.75941 2663.000
31.85991 2834.000
31.96042 2793.000
32.06093 2912.000
32.16143 3036.000
32.26194 3168.000
32.36245 3467.000
32.46295 3679.000
32.56346 3962.000
32.66397 4368.000
32.76447 4837.000
32.86498 5227.000
32.96549 5434.000
33.06599 5568.000
33.16650 5421.000
33.26701 5312.000
33.36752 4787.000
33.46802 4282.000
33.56853 4163.000
33.66904 3881.000
33.76954 3866.000
33.87005 3829.000
33.97056 3877.000
34.07106 3860.000
34.17157 3910.000
34.27208 4033.000
34.37258 4112.000
34.47309 4035.000
34.57360 3937.000
34.67411 3839.000
34.77461 3862.000
34.87512 3729.000
34.97563 3578.000
35.07613 3558.000
35.17664 3464.000
35.27715 3542.000
35.37765 3425.000
35.47816 3408.000
35.57867 3351.000
35.67917 3182.000
35.77968 3107.000
35.88019 3107.000
35.98069 3093.000
36.08120 2991.000
36.18171 2903.000
36.28222 2820.000
36.38272 2879.000
36.48323 2831.000
36.58374 2764.000
36.68424 2743.000
36.78475 2657.000
36.88526 2617.000
36.98576 2641.000
37.08627 2657.000
37.18678 2568.000
37.28728 2570.000
37.38779 2654.000
37.48830 2597.000
37.58880 2546.000
37.68931 2530.000
37.78982 2429.000
37.89033 2490.000
37.99083 2414.000
38.09134 2514.000
38.19185 2382.000
38.29235 2313.000
38.39286 2367.000
38.49337 2332.000
38.59387 2453.000
38.69438 2370.000
38.79489 2344.000
38.89539 2179.000
38.99590 2117.000
39.09641 1975.000
39.19691 1931.000
39.29742 1776.000
39.39793 1778.000
39.49844 1593.000
39.59894 1505.000
39.69945 1558.000
39.79996 1349.000
39.90046 1298.000
40.00097 1268.000
40.10148 1163.000
40.20198 1160.000
40.30249 1147.000
40.40300 1110.000
40.50350 1112.000
40.60401 1143.000
40.70452 1153.000
40.80502 1108.000
40.90553 1032.000
41.00604 1067.000
41.10655 1048.000
41.20705 1094.000
41.30756 1041.000
41.40807 1081.000
41.50857 1078.000
41.60908 1036.000
41.70959 1088.000
41.81009 1015.000
41.91060 1009.000
42.01111 1037.000
42.11161 1034.000
42.21212 1043.000
42.31263 980.000
42.41314 1047.000
42.51364 1051.000
42.61415 1010.000
42.71466 1067.000
42.81516 1064.000
42.91567 1159.000
43.01618 1045.000
43.11668 1030.000
43.21719 1059.000
43.31770 1045.000
43.41820 1032.000
43.51871 1042.000
43.61922 1049.000
43.71972 1066.000
43.82023 1086.000
43.92074 1072.000
44.02125 1148.000
44.12175 1098.000
44.22226 1124.000
44.32277 1116.000
44.42327 1079.000
44.52378 1178.000
44.62429 1177.000
44.72479 1240.000
44.82530 1229.000
44.92581 1242.000
45.02631 1320.000
45.12682 1329.000
45.22733 1329.000
45.32783 1431.000
45.42834 1483.000
45.52885 1549.000
45.62936 1635.000
45.72986 1732.000
45.83037 1864.000
45.93088 1866.000
46.03138 2026.000
46.13189 2318.000
46.23240 2413.000
46.33290 2710.000
46.43341 2866.000
46.53392 3157.000
46.63442 3463.000
46.73493 3756.000
46.83544 4231.000
46.93594 4402.000
47.03645 4878.000
47.13696 4933.000
47.23747 5413.000
47.33797 5404.000
47.43848 5480.000
47.53899 5513.000
47.63949 5304.000
47.74000 5064.000
47.84051 4714.000
47.94101 4327.000
48.04152 4089.000
48.14203 3603.000
48.24253 3324.000
48.34304 2998.000
48.44355 2651.000
48.54406 2463.000
48.64456 2319.000
48.74507 2102.000
48.84558 2002.000
48.94608 1879.000
49.04659 1687.000
49.14710 1593.000
49.24760 1522.000
49.34811 1465.000
49.44862 1398.000
49.54912 1375.000
49.64963 1228.000
49.75014 1273.000
49.85064 1216.000
49.95115 1188.000
50.05166 1195.000
50.15217 1169.000
50.25267 1078.000
50.35318 1139.000
50.45369 1142.000
50.55419 1060.000
50.65470 1073.000
50.75521 993.000
50.85571 1062.000
50.95622 1040.000
51.05673 999.000
51.15723 969.000
51.25774 1034.000
51.35825 972.000
51.45875 970.000
51.55926 1011.000
51.65977 958.000
51.76028 980.000
51.86078 1017.000
51.96129 981.000
52.06180 957.000
52.16230 1038.000
52.26281 986.000
52.36332 959.000
52.46382 983.000
52.56433 974.000
52.66484 1013.000
52.76534 963.000
52.86585 1005.000
52.96636 996.000
53.06686 1102.000
53.16737 1086.000
53.26788 1044.000
53.36839 1079.000
53.46889 1065.000
53.56940 1083.000
53.66991 1108.000
53.77041 1181.000
53.87092 1186.000
53.97143 1240.000
54.07193 1250.000
54.17244 1339.000
54.27295 1344.000
54.37345 1424.000
54.47396 1527.000
54.57447 1567.000
54.67497 1629.000
54.77548 1636.000
54.87599 1847.000
54.97650 1982.000
55.07700 2185.000
55.17751 2309.000
55.27802 2548.000
55.37852 2649.000
55.47903 2893.000
55.57954 3066.000
55.68004 3255.000
55.78055 3637.000
55.88106 3685.000
55.98156 3958.000
56.08207 3936.000
56.18258 4140.000
56.28309 4253.000
56.38359 3971.000
56.48410 3925.000
56.58461 3969.000
56.68511 3595.000
56.78562 3432.000
56.88613 3155.000
56.98663 2889.000
57.08714 2632.000
57.18765 2455.000
57.28815 2280.000
57.38866 2122.000
57.48917 1984.000
57.58967 1868.000
57.69018 1771.000
57.79069 1717.000
57.89120 1641.000
57.99170 1623.000
58.09221 1537.000
58.19272 1510.000
58.29322 1405.000
58.39373 1443.000
58.49424 1474.000
58.59474 1396.000
58.69525 1419.000
58.79576 1441.000
58.89626 1447.000
58.99677 1410.000
59.09728 1387.000
59.19778 1390.000
59.29829 1347.000
59.39880 1252.000
59.49931 1197.000
59.59981 1245.000
59.70032 1106.000
59.80083 1155.000
59.90133 1055.000
60.00184 1051.000
60.10235 1022.000
60.20285 1076.000
60.30336 944.000
60.40387 942.000
60.50437 981.000
60.60488 1000.000
60.70539 929.000
60.80589 894.000
60.90640 870.000
61.00691 865.000
61.10742 822.000
61.20792 823.000
61.30843 867.000
61.40894 791.000
61.50944 772.000
61.60995 789.000
61.71046 821.000
61.81096 780.000
61.91147 739.000
62.01198 745.000
62.11248 770.000
62.21299 725.000
62.31350 737.000
62.41401 774.000
62.51451 749.000
62.61502 696.000
62.71553 746.000
62.81603 722.000
62.91654 710.000
63.01705 745.000
63.11755 715.000
63.21806 722.000
63.31857 670.000
63.41907 679.000
63.51958 702.000
63.62009 679.000
63.72059 642.000
63.82110 681.000
63.92161 678.000
64.02212 679.000
64.12262 644.000
64.22313 642.000
64.32364 694.000
64.42414 675.000
64.52465 678.000
64.62516 641.000
64.72566 660.000
64.82617 640.000
64.92668 656.000
65.02718 645.000
65.12769 623.000
65.22820 699.000
65.32870 699.000
65.42921 658.000
65.52972 627.000
65.63023 663.000
65.73073 708.000
65.83124 690.000
65.93175 668.000
66.03225 703.000
66.13276 731.000
66.23327 713.000
66.33377 740.000
66.43428 793.000
66.53479 674.000
66.63529 709.000
66.73580 714.000
66.83631 695.000
66.93681 745.000
67.03732 745.000
67.13783 695.000
67.23834 734.000
67.33884 739.000
67.43935 800.000
67.53986 760.000
67.64036 765.000
67.74087 810.000
67.84138 822.000
67.94188 836.000
68.04239 913.000
68.14290 891.000
68.24340 862.000
68.34391 981.000
68.44442 986.000
68.54492 1019.000
68.64543 1087.000
68.74594 1140.000
68.84645 1216.000
68.94695 1177.000
69.04746 1239.000
69.14797 1242.000
69.24847 1235.000
69.34898 1232.000
69.44949 1263.000
69.54999 1282.000
69.65050 1197.000
69.75101 1155.000
69.85151 1138.000
69.95202 1033.000
70.05253 991.000
70.15304 879.000
70.25354 964.000
70.35405 901.000
70.45456 817.000
70.55506 769.000
70.65557 832.000
70.75608 747.000
70.85658 804.000
70.95709 745.000
71.05760 714.000
71.15810 702.000
71.25861 696.000
71.35912 661.000
71.45962 736.000
71.56013 751.000
71.66064 665.000
71.76115 689.000
71.86165 646.000
71.96216 676.000
72.06267 657.000
72.16317 701.000
72.26368 682.000
72.36419 670.000
72.46469 660.000
72.56520 689.000
72.66571 684.000
72.76621 688.000
72.86672 653.000
72.96723 656.000
73.06773 687.000
73.16824 691.000
73.26875 697.000
73.36926 733.000
73.46976 701.000
73.57027 715.000
73.67078 746.000
73.77128 760.000
73.87179 746.000
73.97230 798.000
74.07280 803.000
74.17331 801.000
74.27382 826.000
74.37432 824.000
74.47483 844.000
74.57534 945.000
74.67584 920.000
74.77635 952.000
74.87686 1025.000
74.97737 994.000
75.07787 1069.000
75.17838 1074.000
75.27889 1059.000
75.37939 1127.000
75.47990 1247.000
75.58041 1253.000
75.68091 1301.000
75.78142 1310.000
75.88193 1393.000
75.98243 1475.000
76.08294 1493.000
76.18345 1488.000
76.28396 1528.000
76.38446 1577.000
76.48497 1547.000
76.58548 1595.000
76.68598 1574.000
76.78649 1534.000
76.88700 1594.000
76.98750 1542.000
77.08801 1561.000
77.18852 1541.000
77.28902 1477.000
77.38953 1553.000
77.49004 1402.000
77.59054 1437.000
77.69105 1449.000
77.79156 1408.000
77.89207 1434.000
77.99257 1369.000
78.09308 1371.000
78.19359 1403.000
78.29409 1428.000
78.39460 1422.000
78.49511 1462.000
78.59561 1443.000
78.69612 1509.000
78.79663 1418.000
78.89713 1397.000
78.99764 1379.000
79.09815 1359.000
79.19865 1315.000
79.29916 1328.000
79.39967 1205.000
79.50018 1258.000
79.60068 1132.000
79.70119 1199.000
79.80170 1086.000
79.90220 1067.000
80.00271 1052.000
80.10322 982.000
80.20372 994.000
80.30423 921.000
80.40474 917.000
80.50524 869.000
80.60575 852.000
80.70626 846.000
80.80676 820.000
80.90727 770.000
81.00778 799.000
81.10829 803.000
81.20879 736.000
81.30930 773.000
81.40981 729.000
81.51031 740.000
81.61082 716.000
81.71133 751.000
81.81183 687.000
81.91234 698.000
82.01285 727.000
82.11335 712.000
82.21386 686.000
82.31437 692.000
82.41487 681.000
82.51538 684.000
82.61589 688.000
82.71640 625.000
82.81690 659.000
82.91741 721.000
83.01792 674.000
83.11842 662.000
83.21893 704.000
83.31944 611.000
83.41994 650.000
83.52045 649.000
83.62096 626.000
83.72146 651.000
83.82197 643.000
83.92248 697.000
84.02299 646.000
84.12349 644.000
84.22400 667.000
84.32451 636.000
84.42501 654.000
84.52552 694.000
84.62603 673.000
84.72653 655.000
84.82704 677.000
84.92755 741.000
85.02805 754.000
85.12856 706.000
85.22907 682.000
85.32957 712.000
85.43008 764.000
85.53059 780.000
85.63110 751.000
85.73160 776.000
85.83211 759.000
85.93262 720.000
86.03312 791.000
86.13363 806.000
86.23414 884.000
86.33464 911.000
86.43515 892.000
86.53566 888.000
86.63616 925.000
86.73667 908.000
86.83718 987.000
86.93768 973.000
87.03819 990.000
87.13870 1022.000
87.23921 1142.000
87.33971 1079.000
87.44022 1199.000
87.54073 1187.000
87.64123 1173.000
87.74174 1200.000
87.84225 1235.000
87.94275 1226.000
88.04326 1267.000
88.14377 1255.000
88.24427 1312.000
88.34478 1266.000
88.44529 1260.000
88.54579 1176.000
88.64630 1199.000
88.74681 1198.000
88.84732 1193.000
88.94782 1102.000
89.04833 1122.000
89.14884 1104.000
89.24934 1078.000
89.34985 1028.000
89.45036 1034.000
89.55086 967.000
89.65137 969.000
89.75188 918.000
89.85238 856.000
89.95289 881.000
90.05340 870.000
90.15391 830.000
90.25441 856.000
90.35492 876.000
90.45543 848.000
90.55593 798.000
90.65644 751.000
90.75695 752.000
90.85745 772.000
90.95796 808.000
91.05847 735.000
91.15897 777.000
91.25948 713.000
91.35999 764.000
91.46049 723.000
91.56100 771.000
91.66151 780.000
91.76202 743.000
91.86252 755.000
91.96303 766.000
92.06354 743.000
92.16404 765.000
92.26455 705.000
92.36506 721.000
92.46556 751.000
92.56607 751.000
92.66658 783.000
92.76708 759.000
92.86759 847.000
92.96810 798.000
93.06860 794.000
93.16911 823.000
93.26962 903.000
93.37013 811.000
93.47063 912.000
93.57114 946.000
93.67165 928.000
93.77215 972.000
93.87266 955.000
93.97317 1033.000
94.07367 987.000
94.17418 1041.000
94.27469 997.000
94.37519 1091.000
94.47570 1142.000
94.57621 1126.000
94.67671 1174.000
94.77722 1197.000
94.87773 1228.000
94.97824 1196.000
95.07874 1203.000
95.17925 1241.000
95.27976 1245.000
95.38026 1210.000
95.48077 1198.000
95.58128 1149.000
95.68178 1061.000
95.78229 1075.000
95.88280 1101.000
95.98330 1026.000
96.08381 1013.000
96.18432 1003.000
96.28482 1010.000
96.38533 955.000
96.48584 950.000
96.58635 858.000
96.68685 903.000
96.78736 906.000
96.88787 839.000
96.98837 778.000
97.08888 744.000
97.18939 760.000
97.28989 759.000
97.39040 781.000
97.49091 681.000
97.59141 713.000
97.69192 677.000
97.79243 670.000
97.89294 679.000
97.99344 615.000
98.09395 695.000
98.19446 655.000
98.29496 668.000
98.39547 641.000
98.49598 631.000
98.59648 627.000
98.69699 590.000
98.79750 648.000
98.89800 639.000
98.99851 595.000
99.09902 583.000
99.19952 576.000
99.30003 604.000
99.40054 572.000
99.50105 603.000
99.60155 607.000
99.70206 605.000
99.80257 611.000
99.90307 589.000
100.00358 597.000
100.10409 563.000
100.20459 629.000
100.30510 648.000
100.40561 569.000
100.50611 635.000
100.60662 595.000
100.70713 579.000
100.80763 558.000
100.90814 585.000
101.00865 575.000
101.10916 577.000
101.20966 585.000
101.31017 635.000
101.41068 576.000
101.51118 570.000
101.61169 641.000
101.71220 594.000
101.81270 586.000
101.91321 583.000
102.01372 616.000
102.11422 598.000
102.21473 563.000
102.31524 633.000
102.41574 626.000
102.51625 592.000
102.61676 559.000
102.71727 653.000
102.81777 627.000
102.91828 595.000
103.01879 619.000
103.11929 591.000
103.21980 622.000
103.32031 624.000
103.42081 625.000
103.52132 611.000
103.62183 604.000
103.72233 652.000
103.82284 674.000
103.92335 615.000
104.02386 645.000
104.12436 641.000
104.22487 646.000
104.32538 660.000
104.42588 647.000
104.52639 636.000
104.62690 667.000
104.72740 670.000
104.82791 712.000
104.92842 671.000
105.02892 689.000
105.12943 689.000
105.22994 668.000
105.33044 697.000
105.43095 687.000
105.53146 749.000
105.63197 723.000
105.73247 773.000
105.83298 775.000
105.93349 738.000
106.03399 764.000
106.13450 784.000
106.23501 787.000
106.33551 778.000
106.43602 763.000
106.53653 804.000
106.63703 797.000
106.73754 789.000
106.83805 817.000
106.93855 824.000
107.03906 782.000
107.13957 810.000
107.24008 826.000
107.34058 806.000
107.44109 833.000
107.54160 791.000
107.64210 789.000
107.74261 841.000
107.84312 774.000
107.94362 784.000
108.04413 812.000
108.14464 772.000
108.24514 764.000
108.34565 762.000
108.44616 750.000
108.54666 789.000
108.64717 828.000
108.74768 795.000
108.84819 721.000
108.94869 751.000
109.04920 758.000
109.14971 775.000
109.25021 786.000
109.35072 743.000
109.45123 783.000
109.55173 785.000
109.65224 822.000
109.75275 745.000
109.85325 774.000
109.95376 703.000
110.05427 818.000
110.15477 813.000
110.25528 758.000
110.35579 757.000
110.45630 779.000
110.55680 818.000
110.65731 804.000
110.75782 820.000
110.85832 817.000
110.95883 816.000
111.05934 767.000
111.15984 847.000
111.26035 862.000
111.36086 847.000
111.46136 859.000
111.56187 901.000
111.66238 956.000
111.76289 860.000
111.86339 932.000
111.96390 891.000
112.06441 995.000
112.16491 931.000
112.26542 970.000
112.36593 981.000
112.46643 1035.000
112.56694 993.000
112.66745 1055.000
112.76795 1048.000
112.86846 1099.000
112.96897 1142.000
113.06947 1090.000
113.16998 1161.000
113.27049 1239.000
113.37100 1223.000
113.47150 1212.000
113.57201 1224.000
113.67252 1264.000
113.77302 1223.000
113.87353 1224.000
113.97404 1342.000
114.07454 1258.000
114.17505 1350.000
114.27556 1319.000
114.37606 1272.000
114.47657 1308.000
114.57708 1277.000
114.67758 1292.000
114.77809 1335.000
114.87860 1304.000
114.97911 1337.000
115.07961 1278.000
115.18012 1311.000
115.28063 1272.000
115.38113 1335.000
115.48164 1227.000
115.58215 1259.000
115.68265 1297.000
115.78316 1289.000
115.88367 1266.000
115.98417 1204.000
116.08468 1180.000
116.18519 1283.000
116.28569 1182.000
116.38620 1252.000
116.48671 1206.000
116.58722 1179.000
116.68772 1182.000
116.78823 1153.000
116.88874 1155.000
116.98924 1129.000
117.08975 1131.000
117.19026 1065.000
117.29076 1082.000
117.39127 1113.000
117.49178 1032.000
117.59228 1079.000
117.69279 1077.000
117.79330 1009.000
117.89381 1008.000
117.99431 1044.000
118.09482 979.000
118.19533 988.000
118.29583 953.000
118.39634 956.000
118.49685 948.000
118.59735 940.000
118.69786 952.000
118.79837 935.000
118.89887 868.000
118.99938 889.000
119.09989 860.000
119.20039 850.000
119.30090 913.000
119.40141 818.000
119.50192 843.000
119.60242 828.000
119.70293 836.000
119.80344 807.000
119.90394 779.000
120.00445 809.000
120.10496 760.000
120.20546 812.000
120.30597 749.000
120.40648 786.000
120.50698 814.000
120.60749 770.000
120.70800 755.000
120.80850 715.000
120.90901 750.000
121.00952 763.000
121.11003 735.000
121.21053 743.000
121.31104 762.000
121.41155 742.000
121.51205 747.000
121.61256 763.000
121.71307 747.000
121.81357 759.000
121.91408 682.000
122.01459 728.000
122.11509 719.000
122.21560 728.000
122.31611 711.000
122.41661 772.000
122.51712 688.000
122.61763 747.000
122.71814 725.000
122.81864 782.000
122.91915 707.000
123.01966 749.000
