20.00010 8106.000
20.10061 8043.000
20.20111 7968.000
20.30162 8612.000
20.40213 11729.000
20.50263 14870.000
20.60314 16953.000
20.70365 17062.000
20.80416 16238.000
20.90466 15747.000
21.00517 15239.000
21.10568 14871.000
21.20618 14126.000
21.30669 13688.000
21.40720 13459.000
21.50770 12922.000
21.60821 12360.000
21.70872 12108.000
21.80922 11812.000
21.90973 11114.000
22.01024 10772.000
22.11074 10259.000
22.21125 9767.000
22.31176 9385.000
22.41227 9061.000
22.51277 8772.000
22.61328 8709.000
22.71379 8696.000
22.81429 8693.000
22.91480 8546.000
23.01531 8841.000
23.11581 8691.000
23.21632 8915.000
23.31683 8525.000
23.41733 8504.000
23.51784 8712.000
23.61835 8726.000
23.71885 8580.000
23.81936 8502.000
23.91987 8418.000
24.02038 8475.000
24.12088 8476.000
24.22139 8095.000
24.32190 8274.000
24.42240 8110.000
24.52291 8125.000
24.62342 7854.000
24.72392 7623.000
24.82443 7644.000
24.92494 7358.000
25.02544 7220.000
25.12595 7246.000
25.22646 7305.000
25.32696 7118.000
25.42747 6925.000
25.52798 6827.000
25.62849 6826.000
25.72899 6756.000
25.82950 6686.000
25.93001 6564.000
26.03051 6541.000
26.13102 6451.000
26.23153 6454.000
26.33203 6448.000
26.43254 6482.000
26.53305 6564.000
26.63355 6447.000
26.73406 6540.000
26.83457 6698.000
26.93507 6840.000
27.03558 6882.000
27.13609 6996.000
27.23660 7235.000
27.33710 7419.000
27.43761 7795.000
27.53812 8165.000
27.63862 8560.000
27.73913 9397.000
27.83964 10085.000
27.94014 11145.000
28.04065 12203.000
28.14116 13167.000
28.24166 14060.000
28.34217 15145.000
28.44268 15958.000
28.54319 16070.000
28.64369 15822.000
28.74420 15035.000
28.84471 14176.000
28.94521 12717.000
29.04572 11227.000
29.14623 10168.000
29.24673 9097.000
29.34724 8355.000
29.44775 7524.000
29.54825 6956.000
29.64876 6566.000
29.74927 6158.000
29.84977 5791.000
29.95028 5663.000
30.05079 5452.000
30.15130 5117.000
30.25180 4845.000
30.35231 4477.000
30.45282 4265.000
30.55332 4040.000
30.65383 3741.000
30.75434 3393.000
30.85484 3144.000
30.95535 2886.000
31.05586 2712.000
31.15636 2654.000
31.25687 2632.000
31.35738 2676.000
31.45788 2689.000
31.55839 2559.000
31.65890 2624.000
31.75941 2595.000
31.85991 2697.000
31.96042 2735.000
32.06093 2909.000
32.16143 3035.000
32.26194 3234.000
32.36245 3466.000
32.46295 3631.000
32.56346 4005.000
32.66397 4431.000
32.76447 4886.000
32.86498 5184.000
32.96549 5614.000
33.06599 5711.000
33.16650 5371.000
33.26701 5179.000
33.36752 4697.000
33.46802 4265.000
33.56853 4010.000
33.66904 3929.000
33.76954 3835.000
33.87005 3760.000
33.97056 3942.000
34.07106 3946.000
34.17157 3913.000
34.27208 4058.000
34.37258 4009.000
34.47309 4024.000
34.57360 3883.000
34.67411 3951.000
34.77461 3781.000
34.87512 3628.000
34.97563 3662.000
35.07613 3581.000
35.17664 3448.000
35.27715 3388.000
35.37765 3551.000
35.47816 3362.000
35.57867 3389.000
35.67917 3205.000
35.77968 3168.000
35.88019 3144.000
35.98069 2945.000
36.08120 2903.000
36.18171 3001.000
36.28222 2904.000
36.38272 2775.000
36.48323 2755.000
36.58374 2758.000
36.68424 2638.000
36.78475 2616.000
36.88526 2584.000
36.98576 2593.000
37.08627 2617.000
37.18678 2570.000
37.28728 2523.000
37.38779 2584.000
37.48830 2533.000
37.58880 2490.000
37.68931 2481.000
37.78982 2542.000
37.89033 2466.000
37.99083 2519.000
38.09134 2410.000
38.19185 2410.000
38.29235 2356.000
38.39286 2392.000
38.49337 2399.000
38.59387 2433.000
38.69438 2355.000
38.79489 2246.000
38.89539 2259.000
38.99590 2086.000
39.09641 2024.000
39.19691 2001.000
39.29742 1876.000
39.39793 1736.000
39.49844 1660.000
39.59894 1537.000
39.69945 1492.000
39.79996 1394.000
39.90046 1266.000
40.00097 1235.000
40.10148 1188.000
40.20198 1222.000
40.30249 1109.000
40.40300 1081.000
40.50350 1092.000
40.60401 1073.000
40.70452 1081.000
40.80502 1076.000
40.90553 1015.000
41.00604 1066.000
41.10655 1047.000
41.20705 1030.000
41.30756 959.000
41.40807 1018.000
41.50857 1010.000
41.60908 1048.000
41.70959 1046.000
41.81009 1059.000
41.91060 1007.000
42.01111 1037.000
42.11161 992.000
42.21212 1027.000
42.31263 1049.000
42.41314 1015.000
42.51364 994.000
42.61415 1041.000
42.71466 1073.000
42.81516 1040.000
42.91567 1061.000
43.01618 1061.000
43.11668 1054.000
43.21719 1055.000
43.31770 1041.000
43.41820 1009.000
43.51871 1114.000
43.61922 1072.000
43.71972 1051.000
43.82023 1060.000
43.92074 1057.000
44.02125 1075.000
44.12175 1080.000
44.22226 1075.000
44.32277 1084.000
44.42327 1162.000
44.52378 1135.000
44.62429 1124.000
44.72479 1245.000
44.82530 1198.000
44.92581 1307.000
45.02631 1295.000
45.12682 1327.000
45.22733 1350.000
45.32783 1450.000
45.42834 1500.000
45.52885 1556.000
45.62936 1606.000
45.72986 1735.000
45.83037 1801.000
45.93088 1965.000
46.03138 2107.000
46.13189 2177.000
46.23240 2425.000
46.33290 2616.000
46.43341 2951.000
46.53392 3151.000
46.63442 3458.000
46.73493 3730.000
46.83544 4062.000
46.93594 4409.000
47.03645 4735.000
47.13696 5043.000
47.23747 5412.000
47.33797 5404.000
47.43848 5609.000
47.53899 5394.000
47.63949 5208.000
47.74000 4913.000
47.84051 4721.000
47.94101 4248.000
48.04152 3907.000
48.14203 3544.000
48.24253 3243.000
48.34304 2952.000
48.44355 2667.000
48.54406 2459.000
48.64456 2261.000
48.74507 2098.000
48.84558 1956.000
48.94608 1803.000
49.04659 1762.000
49.14710 1587.000
49.24760 1485.000
49.34811 1505.000
49.44862 1352.000
49.54912 1342.000
49.64963 1290.000
49.75014 1234.000
49.85064 1147.000
49.95115 1174.000
50.05166 1258.000
50.15217 1134.000
50.25267 1138.000
50.35318 1125.000
50.45369 1049.000
50.55419 1109.000
50.65470 1003.000
50.75521 1070.000
50.85571 977.000
50.95622 1001.000
51.05673 990.000
51.15723 980.000
51.25774 977.000
51.35825 997.000
51.45875 998.000
51.55926 1018.000
51.65977 965.000
51.76028 981.000
51.86078 999.000
51.96129 1026.000
52.06180 969.000
52.16230 1019.000
52.26281 1014.000
52.36332 986.000
52.46382 1021.000
52.56433 1004.000
52.66484 990.000
52.76534 1014.000
52.86585 1023.000
52.96636 1047.000
53.06686 1056.000
53.16737 1070.000
53.26788 1014.000
53.36839 1120.000
53.46889 1101.000
53.56940 1117.000
53.66991 1197.000
53.77041 1185.000
53.87092 1242.000
53.97143 1261.000
54.07193 1229.000
54.17244 1370.000
54.27295 1355.000
54.37345 1411.000
54.47396 1559.000
54.57447 1569.000
54.67497 1725.000
54.77548 1792.000
54.87599 1803.000
54.97650 2068.000
55.07700 2118.000
55.17751 2275.000
55.27802 2473.000
55.37852 2673.000
55.47903 2912.000
55.57954 3097.000
55.68004 3381.000
55.78055 3506.000
55.88106 3724.000
55.98156 3939.000
56.08207 4080.000
56.18258 4147.000
56.28309 4121.000
56.38359 4000.000
56.48410 3992.000
56.58461 3857.000
56.68511 3641.000
56.78562 3306.000
56.88613 3038.000
56.98663 2860.000
57.08714 2582.000
57.18765 2397.000
57.28815 2256.000
57.38866 2064.000
57.48917 2013.000
57.58967 1831.000
57.69018 1758.000
57.79069 1627.000
57.89120 1550.000
57.99170 1564.000
58.09221 1480.000
58.19272 1475.000
58.29322 1453.000
58.39373 1429.000
58.49424 1435.000
58.59474 1435.000
58.69525 1427.000
58.79576 1453.000
58.89626 1439.000
58.99677 1440.000
59.09728 1423.000
59.19778 1357.000
59.29829 1275.000
59.39880 1301.000
59.49931 1219.000
59.59981 1216.000
59.70032 1107.000
59.80083 1130.000
59.90133 1098.000
60.00184 1027.000
60.10235 1009.000
60.20285 1008.000
60.30336 938.000
60.40387 917.000
60.50437 994.000
60.60488 889.000
60.70539 909.000
60.80589 870.000
60.90640 857.000
61.00691 851.000
61.10742 813.000
61.20792 826.000
61.30843 835.000
61.40894 905.000
61.50944 779.000
61.60995 740.000
61.71046 804.000
61.81096 757.000
61.91147 767.000
62.01198 771.000
62.11248 766.000
62.21299 715.000
62.31350 791.000
62.41401 740.000
62.51451 726.000
62.61502 733.000
62.71553 714.000
62.81603 761.000
62.91654 686.000
63.01705 672.000
63.11755 686.000
63.21806 717.000
63.31857 688.000
63.41907 691.000
63.51958 709.000
63.62009 700.000
63.72059 684.000
63.82110 658.000
63.92161 673.000
64.02212 715.000
64.12262 685.000
64.22313 698.000
64.32364 660.000
64.42414 653.000
64.52465 684.000
64.62516 678.000
64.72566 652.000
64.82617 642.000
64.92668 633.000
65.02718 720.000
65.12769 689.000
65.22820 725.000
65.32870 616.000
65.42921 634.000
65.52972 698.000
65.63023 696.000
65.73073 707.000
65.83124 645.000
65.93175 669.000
66.03225 703.000
66.13276 735.000
66.23327 708.000
66.33377 731.000
66.43428 718.000
66.53479 641.000
66.63529 695.000
66.73580 753.000
66.83631 715.000
66.93681 659.000
67.03732 695.000
67.13783 700.000
67.23834 720.000
67.33884 738.000
67.43935 740.000
67.53986 775.000
67.64036 771.000
67.74087 806.000
67.84138 818.000
67.94188 880.000
68.04239 922.000
68.14290 868.000
68.24340 949.000
68.34391 980.000
68.44442 942.000
68.54492 1049.000
68.64543 1059.000
68.74594 1175.000
68.84645 1197.000
68.94695 1215.000
69.04746 1229.000
69.14797 1248.000
69.24847 1183.000
69.34898 1303.000
69.44949 1252.000
69.54999 1216.000
69.65050 1156.000
69.75101 1130.000
69.85151 1084.000
69.95202 1008.000
70.05253 966.000
70.15304 924.000
70.25354 902.000
70.35405 838.000
70.45456 812.000
70.55506 806.000
70.65557 756.000
70.75608 759.000
70.85658 749.000
70.95709 726.000
71.05760 669.000
71.15810 729.000
71.25861 716.000
71.35912 692.000
71.45962 690.000
71.56013 757.000
71.66064 697.000
71.76115 707.000
71.86165 687.000
71.96216 693.000
72.06267 660.000
72.16317 683.000
72.26368 677.000
72.36419 684.000
72.46469 685.000
72.56520 693.000
72.66571 714.000
72.76621 696.000
72.86672 710.000
72.96723 669.000
73.06773 704.000
73.16824 709.000
73.26875 707.000
73.36926 694.000
73.46976 757.000
73.57027 705.000
73.67078 786.000
73.77128 771.000
73.87179 763.000
73.97230 800.000
74.07280 788.000
74.17331 781.000
74.27382 822.000
74.37432 916.000
74.47483 923.000
74.57534 893.000
74.67584 915.000
74.77635 959.000
74.87686 1015.000
74.97737 1024.000
75.07787 1084.000
75.17838 1117.000
75.27889 1063.000
75.37939 1152.000
75.47990 1159.000
75.58041 1270.000
75.68091 1284.000
75.78142 1437.000
75.88193 1426.000
75.98243 1406.000
76.08294 1439.000
76.18345 1576.000
76.28396 1628.000
76.38446 1580.000
76.48497 1592.000
76.58548 1562.000
76.68598 1643.000
76.78649 1570.000
76.88700 1603.000
76.98750 1551.000
77.08801 1558.000
77.18852 1467.000
77.28902 1460.000
77.38953 1473.000
77.49004 1474.000
77.59054 1361.000
77.69105 1366.000
77.79156 1487.000
77.89207 1391.000
77.99257 1377.000
78.09308 1356.000
78.19359 1406.000
78.29409 1393.000
78.39460 1361.000
78.49511 1474.000
78.59561 1344.000
78.69612 1327.000
78.79663 1367.000
78.89713 1332.000
78.99764 1392.000
79.09815 1309.000
79.19865 1241.000
79.29916 1295.000
79.39967 1291.000
79.50018 1176.000
79.60068 1164.000
79.70119 1154.000
79.80170 1030.000
79.90220 986.000
80.00271 1055.000
80.10322 965.000
80.20372 1008.000
80.30423 871.000
80.40474 876.000
80.50524 838.000
80.60575 802.000
80.70626 780.000
80.80676 814.000
80.90727 784.000
81.00778 763.000
81.10829 781.000
81.20879 718.000
81.30930 778.000
81.40981 729.000
81.51031 724.000
81.61082 715.000
81.71133 716.000
81.81183 676.000
81.91234 689.000
82.01285 663.000
82.11335 737.000
82.21386 692.000
82.31437 680.000
82.41487 686.000
82.51538 648.000
82.61589 702.000
82.71640 671.000
82.81690 695.000
82.91741 712.000
83.01792 677.000
83.11842 639.000
83.21893 657.000
83.31944 652.000
83.41994 626.000
83.52045 713.000
83.62096 672.000
83.72146 656.000
83.82197 669.000
83.92248 654.000
84.02299 656.000
84.12349 656.000
84.22400 630.000
84.32451 705.000
84.42501 723.000
84.52552 712.000
84.62603 676.000
84.72653 681.000
84.82704 695.000
84.92755 767.000
85.02805 729.000
85.12856 730.000
85.22907 701.000
85.32957 730.000
85.43008 758.000
85.53059 719.000
85.63110 782.000
85.73160 792.000
85.83211 826.000
85.93262 797.000
86.03312 807.000
86.13363 811.000
86.23414 856.000
86.33464 828.000
86.43515 889.000
86.53566 933.000
86.63616 936.000
86.73667 948.000
86.83718 972.000
86.93768 1033.000
87.03819 1072.000
87.13870 1017.000
87.23921 1085.000
87.33971 1082.000
87.44022 1099.000
87.54073 1123.000
87.64123 1202.000
87.74174 1265.000
87.84225 1230.000
87.94275 1260.000
88.04326 1207.000
88.14377 1304.000
88.24427 1275.000
88.34478 1275.000
88.44529 1249.000
88.54579 1311.000
88.64630 1247.000
88.74681 1253.000
88.84732 1168.000
88.94782 1110.000
89.04833 1104.000
89.14884 1090.000
89.24934 1055.000
89.34985 1066.000
89.45036 985.000
89.55086 1015.000
89.65137 929.000
89.75188 909.000
89.85238 919.000
89.95289 907.000
90.05340 877.000
90.15391 855.000
90.25441 828.000
90.35492 832.000
90.45543 771.000
90.55593 745.000
90.65644 734.000
90.75695 772.000
90.85745 769.000
90.95796 729.000
91.05847 747.000
91.15897 773.000
91.25948 802.000
91.35999 741.000
91.46049 728.000
91.56100 732.000
91.66151 678.000
91.76202 741.000
91.86252 711.000
91.96303 740.000
92.06354 739.000
92.16404 784.000
92.26455 733.000
92.36506 777.000
92.46556 786.000
92.56607 807.000
92.66658 804.000
92.76708 751.000
92.86759 785.000
92.96810 741.000
93.06860 790.000
93.16911 861.000
93.26962 895.000
93.37013 847.000
93.47063 907.000
93.57114 899.000
93.67165 945.000
93.77215 881.000
93.87266 1040.000
93.97317 1016.000
94.07367 1028.000
94.17418 1035.000
94.27469 1028.000
94.37519 1028.000
94.47570 1097.000
94.57621 1092.000
94.67671 1133.000
94.77722 1161.000
94.87773 1141.000
94.97824 1221.000
95.07874 1192.000
95.17925 1233.000
95.27976 1216.000
95.38026 1189.000
95.48077 1130.000
95.58128 1185.000
95.68178 1168.000
95.78229 1151.000
95.88280 1093.000
95.98330 1070.000
96.08381 1036.000
96.18432 1000.000
96.28482 978.000
96.38533 982.000
96.48584 879.000
96.58635 870.000
96.68685 820.000
96.78736 867.000
96.88787 798.000
96.98837 806.000
97.08888 811.000
97.18939 784.000
97.28989 778.000
97.39040 774.000
97.49091 745.000
97.59141 718.000
97.69192 730.000
97.79243 674.000
97.89294 644.000
97.99344 693.000
98.09395 679.000
98.19446 689.000
98.29496 614.000
98.39547 640.000
98.49598 654.000
98.59648 632.000
98.69699 648.000
98.79750 622.000
98.89800 667.000
98.99851 620.000
99.09902 650.000
99.19952 622.000
99.30003 590.000
99.40054 617.000
99.50105 605.000
99.60155 591.000
99.70206 660.000
99.80257 578.000
99.90307 567.000
100.00358 573.000
100.10409 657.000
100.20459 607.000
100.30510 558.000
100.40561 589.000
100.50611 581.000
100.60662 582.000
100.70713 624.000
100.80763 601.000
100.90814 609.000
101.00865 594.000
101.10916 589.000
101.20966 582.000
101.31017 605.000
101.41068 590.000
101.51118 579.000
101.61169 590.000
101.71220 613.000
101.81270 538.000
101.91321 558.000
102.01372 599.000
102.11422 640.000
102.21473 600.000
102.31524 590.000
102.41574 625.000
102.51625 582.000
102.61676 609.000
102.71727 559.000
102.81777 643.000
102.91828 611.000
103.01879 580.000
103.11929 599.000
103.21980 586.000
103.32031 673.000
103.42081 634.000
103.52132 633.000
103.62183 627.000
103.72233 652.000
103.82284 671.000
103.92335 632.000
104.02386 627.000
104.12436 636.000
104.22487 662.000
104.32538 647.000
104.42588 641.000
104.52639 714.000
104.62690 671.000
104.72740 644.000
104.82791 680.000
104.92842 701.000
105.02892 688.000
105.12943 693.000
105.22994 680.000
105.33044 662.000
105.43095 755.000
105.53146 772.000
105.63197 724.000
105.73247 732.000
105.83298 805.000
105.93349 748.000
106.03399 738.000
106.13450 804.000
106.23501 776.000
106.33551 797.000
106.43602 817.000
106.53653 833.000
106.63703 781.000
106.73754 834.000
106.83805 814.000
106.93855 785.000
107.03906 885.000
107.13957 837.000
107.24008 813.000
107.34058 810.000
107.44109 791.000
107.54160 840.000
107.64210 819.000
107.74261 833.000
107.84312 808.000
107.94362 789.000
108.04413 787.000
108.14464 838.000
108.24514 823.000
108.34565 832.000
108.44616 785.000
108.54666 793.000
108.64717 726.000
108.74768 712.000
108.84819 732.000
108.94869 681.000
109.04920 797.000
109.14971 737.000
109.25021 753.000
109.35072 784.000
109.45123 791.000
109.55173 766.000
109.65224 768.000
109.75275 789.000
109.85325 792.000
109.95376 761.000
110.05427 814.000
110.15477 774.000
110.25528 790.000
110.35579 761.000
110.45630 779.000
110.55680 777.000
110.65731 793.000
110.75782 766.000
110.85832 829.000
110.95883 803.000
111.05934 849.000
111.15984 847.000
111.26035 852.000
111.36086 847.000
111.46136 851.000
111.56187 877.000
111.66238 854.000
111.76289 915.000
111.86339 913.000
111.96390 965.000
112.06441 872.000
112.16491 974.000
112.26542 1014.000
112.36593 998.000
112.46643 1009.000
112.56694 996.000
112.66745 1053.000
112.76795 1070.000
112.86846 1050.000
112.96897 1071.000
113.06947 1124.000
113.16998 1200.000
113.27049 1160.000
113.37100 1171.000
113.47150 1206.000
113.57201 1202.000
113.67252 1207.000
113.77302 1201.000
113.87353 1252.000
113.97404 1277.000
114.07454 1313.000
114.17505 1280.000
114.27556 1304.000
114.37606 1298.000
114.47657 1312.000
114.57708 1338.000
114.67758 1334.000
114.77809 1265.000
114.87860 1339.000
114.97911 1248.000
115.07961 1357.000
115.18012 1334.000
115.28063 1289.000
115.38113 1335.000
115.48164 1250.000
115.58215 1264.000
115.68265 1241.000
115.78316 1248.000
115.88367 1286.000
115.98417 1237.000
116.08468 1302.000
116.18519 1176.000
116.28569 1168.000
116.38620 1162.000
116.48671 1249.000
116.58722 1148.000
116.68772 1160.000
116.78823 1197.000
116.88874 1073.000
116.98924 1107.000
117.08975 1169.000
117.19026 1117.000
117.29076 1119.000
117.39127 1087.000
117.49178 997.000
117.59228 977.000
117.69279 1045.000
117.79330 989.000
117.89381 1064.000
117.99431 987.000
118.09482 1030.000
118.19533 993.000
118.29583 953.000
118.39634 961.000
118.49685 931.000
118.59735 941.000
118.69786 913.000
118.79837 866.000
118.89887 844.000
118.99938 894.000
119.09989 843.000
119.20039 914.000
119.30090 869.000
119.40141 861.000
119.50192 772.000
119.60242 843.000
119.70293 818.000
119.80344 852.000
119.90394 783.000
120.00445 781.000
120.10496 787.000
120.20546 793.000
120.30597 788.000
120.40648 793.000
120.50698 751.000
120.60749 796.000
120.70800 771.000
120.80850 823.000
120.90901 707.000
121.00952 745.000
121.11003 718.000
121.21053 759.000
121.31104 742.000
121.41155 740.000
121.51205 734.000
121.61256 734.000
121.71307 721.000
121.81357 730.000
121.91408 775.000
122.01459 727.000
122.11509 741.000
122.21560 719.000
122.31611 759.000
122.41661 762.000
122.51712 757.000
122.61763 753.000
122.71814 721.000
122.81864 725.000
122.91915 784.000
123.01966 788.000
