20.00010 8401.000
20.10061 8267.000
20.20111 8010.000
20.30162 8770.000
20.40213 11698.000
20.50263 14866.000
20.60314 17367.000
20.70365 17047.000
20.80416 16620.000
20.90466 15975.000
21.00517 15271.000
21.10568 14752.000
21.20618 14435.000
21.30669 13913.000
21.40720 13558.000
21.50770 12975.000
21.60821 12578.000
21.70872 11903.000
21.80922 11633.000
21.90973 11200.000
22.01024 10536.000
22.11074 10205.000
22.21125 9824.000
22.31176 9486.000
22.41227 9029.000
22.51277 8825.000
22.61328 8831.000
22.71379 8640.000
22.81429 8859.000
22.91480 8649.000
23.01531 8623.000
23.11581 8932.000
23.21632 8772.000
23.31683 8790.000
23.41733 8821.000
23.51784 8707.000
23.61835 8761.000
23.71885 8630.000
23.81936 8646.000
23.91987 8458.000
24.02038 8413.000
24.12088 8457.000
24.22139 8335.000
24.32190 8285.000
24.42240 8229.000
24.52291 8190.000
24.62342 7819.000
24.72392 7825.000
24.82443 7757.000
24.92494 7416.000
25.02544 7485.000
25.12595 7325.000
25.22646 7300.000
25.32696 7126.000
25.42747 7039.000
25.52798 6774.000
25.62849 6802.000
25.72899 6876.000
25.82950 6700.000
25.93001 6717.000
26.03051 6555.000
26.13102 6541.000
26.23153 6503.000
26.33203 6608.000
26.43254 6408.000
26.53305 6603.000
26.63355 6695.000
26.73406 6677.000
26.83457 6554.000
26.93507 6764.000
27.03558 6881.000
27.13609 7006.000
27.23660 7238.000
27.33710 7423.000
27.43761 7847.000
27.53812 8105.000
27.63862 8662.000
27.73913 9111.000
27.83964 10159.000
27.94014 10862.000
28.04065 11651.000
28.14116 13027.000
28.24166 14118.000
28.34217 15243.000
28.44268 16084.000
28.54319 16041.000
28.64369 15822.000
28.74420 15257.000
28.84471 14030.000
28.94521 13288.000
29.04572 11796.000
29.14623 10523.000
29.24673 9497.000
29.34724 8586.000
29.44775 7838.000
29.54825 7210.000
29.64876 6753.000
29.74927 6262.000
29.84977 6120.000
29.95028 5741.000
30.05079 5727.000
30.15130 5198.000
30.25180 4996.000
30.35231 4679.000
30.45282 4369.000
30.55332 4092.000
30.65383 3790.000
30.75434 3436.000
30.85484 3248.000
30.95535 2980.000
31.05586 2764.000
31.15636 2691.000
31.25687 2730.000
31.35738 2763.000
31.45788 2736.000
31.55839 2578.000
31.65890 2681.000
31.75941 2692.000
31.85991 2714.000
31.96042 2860.000
32.06093 2967.000
32.16143 2968.000
32.26194 3231.000
32.36245 3308.000
32.46295 3600.000
32.56346 3987.000
32.66397 4256.000
32.76447 4768.000
32.86498 5068.000
32.96549 5404.000
33.06599 5535.000
33.16650 5581.000
33.26701 5399.000
33.36752 4906.000
33.46802 4448.000
33.56853 4284.000
33.66904 4027.000
33.76954 3779.000
33.87005 3926.000
33.97056 3950.000
34.07106 4044.000
34.17157 4077.000
34.27208 4109.000
34.37258 4144.000
34.47309 4041.000
34.57360 4127.000
34.67411 3980.000
34.77461 3808.000
34.87512 3738.000
34.97563 3534.000
35.07613 3591.000
35.17664 3472.000
35.27715 3375.000
35.37765 3553.000
35.47816 3491.000
35.57867 3309.000
35.67917 3247.000
35.77968 3184.000
35.88019 3119.000
35.98069 3086.000
36.08120 2946.000
36.18171 2967.000
36.28222 2936.000
36.38272 2863.000
36.48323 2925.000
36.58374 2729.000
36.68424 2700.000
36.78475 2748.000
36.88526 2637.000
36.98576 2637.000
37.08627 2698.000
37.18678 2692.000
37.28728 2542.000
37.38779 2611.000
37.48830 2645.000
37.58880 2690.000
37.68931 2548.000
37.78982 2585.000
37.89033 2561.000
37.99083 2548.000
38.09134 2487.000
38.19185 2526.000
38.29235 2484.000
38.39286 2417.000
38.49337 2357.000
38.59387 2390.000
38.69438 2398.000
38.79489 2315.000
38.89539 2235.000
38.99590 2144.000
39.09641 2040.000
39.19691 1958.000
39.29742 1875.000
39.39793 1790.000
39.49844 1624.000
39.59894 1585.000
39.69945 1501.000
39.79996 1398.000
39.90046 1308.000
40.00097 1204.000
40.10148 1272.000
40.20198 1146.000
40.30249 1130.000
40.40300 1172.000
40.50350 1164.000
40.60401 1104.000
40.70452 1100.000
40.80502 1134.000
40.90553 1047.000
41.00604 1130.000
41.10655 1054.000
41.20705 1140.000
41.30756 1072.000
41.40807 1071.000
41.50857 1056.000
41.60908 1065.000
41.70959 1093.000
41.81009 1050.000
41.91060 1023.000
42.01111 1024.000
42.11161 1103.000
42.21212 1066.000
42.31263 1045.000
42.41314 1017.000
42.51364 1099.000
42.61415 1042.000
42.71466 1036.000
42.81516 1038.000
42.91567 1132.000
43.01618 1155.000
43.11668 1131.000
43.21719 995.000
43.31770 1050.000
43.41820 1080.000
43.51871 1045.000
43.61922 1044.000
43.71972 1078.000
43.82023 1084.000
43.92074 1147.000
44.02125 1132.000
44.12175 1082.000
44.22226 1104.000
44.32277 1143.000
44.42327 1149.000
44.52378 1123.000
44.62429 1226.000
44.72479 1220.000
44.82530 1321.000
44.92581 1287.000
45.02631 1232.000
45.12682 1347.000
45.22733 1333.000
45.32783 1436.000
45.42834 1475.000
45.52885 1527.000
45.62936 1623.000
45.72986 1708.000
45.83037 1735.000
45.93088 1928.000
46.03138 2004.000
46.13189 2260.000
46.23240 2444.000
46.33290 2668.000
46.43341 2705.000
46.53392 2934.000
46.63442 3473.000
46.73493 3662.000
46.83544 4048.000
46.93594 4409.000
47.03645 4735.000
47.13696 5009.000
47.23747 5243.000
47.33797 5525.000
47.43848 5441.000
47.53899 5494.000
47.63949 5363.000
47.74000 5160.000
47.84051 4788.000
47.94101 4482.000
48.04152 4126.000
48.14203 3779.000
48.24253 3359.000
48.34304 3056.000
48.44355 2774.000
48.54406 2611.000
48.64456 2286.000
48.74507 2133.000
48.84558 1958.000
48.94608 1977.000
49.04659 1762.000
49.14710 1679.000
49.24760 1580.000
49.34811 1456.000
49.44862 1479.000
49.54912 1418.000
49.64963 1361.000
49.75014 1305.000
49.85064 1225.000
49.95115 1198.000
50.05166 1154.000
50.15217 1182.000
50.25267 1154.000
50.35318 1119.000
50.45369 1109.000
50.55419 1098.000
50.65470 1100.000
50.75521 1119.000
50.85571 1093.000
50.95622 1069.000
51.05673 1021.000
51.15723 1081.000
51.25774 1051.000
51.35825 1002.000
51.45875 968.000
51.55926 936.000
51.65977 957.000
51.76028 947.000
51.86078 971.000
51.96129 962.000
52.06180 981.000
52.16230 1001.000
52.26281 961.000
52.36332 979.000
52.46382 1001.000
52.56433 1027.000
52.66484 947.000
52.76534 1005.000
52.86585 1023.000
52.96636 1017.000
53.06686 1122.000
53.16737 1081.000
53.26788 1076.000
53.36839 1058.000
53.46889 1135.000
53.56940 1153.000
53.66991 1065.000
53.77041 1157.000
53.87092 1220.000
53.97143 1229.000
54.07193 1371.000
54.17244 1247.000
54.27295 1293.000
54.37345 1391.000
54.47396 1448.000
54.57447 1573.000
54.67497 1607.000
54.77548 1695.000
54.87599 1819.000
54.97650 1888.000
55.07700 2068.000
55.17751 2207.000
55.27802 2430.000
55.37852 2571.000
55.47903 2784.000
55.57954 3047.000
55.68004 3177.000
55.78055 3429.000
55.88106 3603.000
55.98156 3782.000
56.08207 4038.000
56.18258 4100.000
56.28309 4214.000
56.38359 4236.000
56.48410 3937.000
56.58461 3917.000
56.68511 3669.000
56.78562 3510.000
56.88613 3186.000
56.98663 2979.000
57.08714 2820.000
57.18765 2522.000
57.28815 2290.000
57.38866 2137.000
57.48917 2103.000
57.58967 1865.000
57.69018 1836.000
57.79069 1712.000
57.89120 1677.000
57.99170 1560.000
58.09221 1567.000
58.19272 1459.000
58.29322 1512.000
58.39373 1457.000
58.49424 1471.000
58.59474 1546.000
58.69525 1477.000
58.79576 1444.000
58.89626 1495.000
58.99677 1378.000
59.09728 1385.000
59.19778 1372.000
59.29829 1245.000
59.39880 1261.000
59.49931 1310.000
59.59981 1218.000
59.70032 1150.000
59.80083 1200.000
59.90133 1099.000
60.00184 1169.000
60.10235 1059.000
60.20285 1044.000
60.30336 951.000
60.40387 944.000
60.50437 927.000
60.60488 947.000
60.70539 896.000
60.80589 891.000
60.90640 908.000
61.00691 840.000
61.10742 849.000
61.20792 834.000
61.30843 811.000
61.40894 827.000
61.50944 789.000
61.60995 752.000
61.71046 830.000
61.81096 811.000
61.91147 740.000
62.01198 681.000
62.11248 778.000
62.21299 774.000
62.31350 811.000
62.41401 710.000
62.51451 762.000
62.61502 738.000
62.71553 781.000
62.81603 714.000
62.91654 680.000
63.01705 714.000
63.11755 722.000
63.21806 687.000
63.31857 676.000
63.41907 668.000
63.51958 724.000
63.62009 700.000
63.72059 687.000
63.82110 703.000
63.92161 651.000
64.02212 702.000
64.12262 690.000
64.22313 692.000
64.32364 700.000
64.42414 677.000
64.52465 700.000
64.62516 712.000
64.72566 665.000
64.82617 659.000
64.92668 623.000
65.02718 655.000
65.12769 674.000
65.22820 666.000
65.32870 681.000
65.42921 675.000
65.52972 676.000
65.63023 641.000
65.73073 688.000
65.83124 645.000
65.93175 687.000
66.03225 742.000
66.13276 671.000
66.23327 697.000
66.33377 770.000
66.43428 712.000
66.53479 743.000
66.63529 745.000
66.73580 737.000
66.83631 697.000
66.93681 727.000
67.03732 707.000
67.13783 689.000
67.23834 760.000
67.33884 714.000
67.43935 764.000
67.53986 779.000
67.64036 772.000
67.74087 773.000
67.84138 790.000
67.94188 841.000
68.04239 877.000
68.14290 877.000
68.24340 886.000
68.34391 958.000
68.44442 970.000
68.54492 948.000
68.64543 1086.000
68.74594 1130.000
68.84645 1190.000
68.94695 1182.000
69.04746 1259.000
69.14797 1269.000
69.24847 1250.000
69.34898 1296.000
69.44949 1227.000
69.54999 1233.000
69.65050 1275.000
69.75101 1129.000
69.85151 1117.000
69.95202 1055.000
70.05253 1035.000
70.15304 935.000
70.25354 910.000
70.35405 845.000
70.45456 830.000
70.55506 796.000
70.65557 799.000
70.75608 739.000
70.85658 745.000
70.95709 678.000
71.05760 726.000
71.15810 713.000
71.25861 701.000
71.35912 734.000
71.45962 660.000
71.56013 655.000
71.66064 678.000
71.76115 707.000
71.86165 702.000
71.96216 648.000
72.06267 686.000
72.16317 672.000
72.26368 675.000
72.36419 684.000
72.46469 651.000
72.56520 671.000
72.66571 657.000
72.76621 695.000
72.86672 691.000
72.96723 665.000
73.06773 672.000
73.16824 767.000
73.26875 669.000
73.36926 688.000
73.46976 680.000
73.57027 746.000
73.67078 767.000
73.77128 732.000
73.87179 769.000
73.97230 776.000
74.07280 758.000
74.17331 782.000
74.27382 780.000
74.37432 827.000
74.47483 843.000
74.57534 872.000
74.67584 897.000
74.77635 946.000
74.87686 932.000
74.97737 928.000
75.07787 1061.000
75.17838 1029.000
75.27889 1119.000
75.37939 1158.000
75.47990 1221.000
75.58041 1239.000
75.68091 1250.000
75.78142 1320.000
75.88193 1367.000
75.98243 1405.000
76.08294 1433.000
76.18345 1534.000
76.28396 1546.000
76.38446 1551.000
76.48497 1655.000
76.58548 1657.000
76.68598 1681.000
76.78649 1588.000
76.88700 1611.000
76.98750 1530.000
77.08801 1504.000
77.18852 1579.000
77.28902 1549.000
77.38953 1520.000
77.49004 1519.000
77.59054 1501.000
77.69105 1435.000
77.79156 1393.000
77.89207 1430.000
77.99257 1378.000
78.09308 1476.000
78.19359 1414.000
78.29409 1403.000
78.39460 1465.000
78.49511 1494.000
78.59561 1433.000
78.69612 1359.000
78.79663 1405.000
78.89713 1362.000
78.99764 1422.000
79.09815 1364.000
79.19865 1338.000
79.29916 1317.000
79.39967 1261.000
79.50018 1287.000
79.60068 1190.000
79.70119 1097.000
79.80170 1084.000
79.90220 1069.000
80.00271 1037.000
80.10322 1000.000
80.20372 1002.000
80.30423 991.000
80.40474 956.000
80.50524 883.000
80.60575 878.000
80.70626 840.000
80.80676 890.000
80.90727 785.000
81.00778 760.000
81.10829 772.000
81.20879 760.000
81.30930 769.000
81.40981 748.000
81.51031 716.000
81.61082 675.000
81.71133 708.000
81.81183 696.000
81.91234 727.000
82.01285 672.000
82.11335 693.000
82.21386 708.000
82.31437 655.000
82.41487 666.000
82.51538 687.000
82.61589 657.000
82.71640 654.000
82.81690 662.000
82.91741 711.000
83.01792 687.000
83.11842 669.000
83.21893 666.000
83.31944 680.000
83.41994 683.000
83.52045 664.000
83.62096 651.000
83.72146 644.000
83.82197 631.000
83.92248 664.000
84.02299 682.000
84.12349 691.000
84.22400 652.000
84.32451 669.000
84.42501 629.000
84.52552 682.000
84.62603 706.000
84.72653 676.000
84.82704 718.000
84.92755 709.000
85.02805 713.000
85.12856 698.000
85.22907 725.000
85.32957 747.000
85.43008 730.000
85.53059 714.000
85.63110 773.000
85.73160 774.000
85.83211 784.000
85.93262 757.000
86.03312 784.000
86.13363 802.000
86.23414 837.000
86.33464 850.000
86.43515 860.000
86.53566 938.000
86.63616 914.000
86.73667 947.000
86.83718 975.000
86.93768 1016.000
87.03819 1020.000
87.13870 1077.000
87.23921 1052.000
87.33971 1129.000
87.44022 1160.000
87.54073 1186.000
87.64123 1226.000
87.74174 1235.000
87.84225 1268.000
87.94275 1241.000
88.04326 1175.000
88.14377 1290.000
88.24427 1225.000
88.34478 1242.000
88.44529 1293.000
88.54579 1222.000
88.64630 1227.000
88.74681 1257.000
88.84732 1225.000
88.94782 1212.000
89.04833 1179.000
89.14884 1139.000
89.24934 1107.000
89.34985 1027.000
89.45036 1023.000
89.55086 1000.000
89.65137 953.000
89.75188 921.000
89.85238 932.000
89.95289 929.000
90.05340 835.000
90.15391 876.000
90.25441 903.000
90.35492 843.000
90.45543 811.000
90.55593 838.000
90.65644 763.000
90.75695 733.000
90.85745 788.000
90.95796 705.000
91.05847 767.000
91.15897 744.000
91.25948 781.000
91.35999 746.000
91.46049 757.000
91.56100 753.000
91.66151 743.000
91.76202 743.000
91.86252 731.000
91.96303 761.000
92.06354 715.000
92.16404 718.000
92.26455 743.000
92.36506 759.000
92.46556 774.000
92.56607 772.000
92.66658 722.000
92.76708 784.000
92.86759 804.000
92.96810 781.000
93.06860 755.000
93.16911 839.000
93.26962 860.000
93.37013 899.000
93.47063 854.000
93.57114 915.000
93.67165 847.000
93.77215 945.000
93.87266 950.000
93.97317 1041.000
94.07367 954.000
94.17418 1031.000
94.27469 1074.000
94.37519 1099.000
94.47570 1088.000
94.57621 1164.000
94.67671 1120.000
94.77722 1197.000
94.87773 1231.000
94.97824 1220.000
95.07874 1206.000
95.17925 1307.000
95.27976 1262.000
95.38026 1199.000
95.48077 1244.000
95.58128 1257.000
95.68178 1258.000
95.78229 1077.000
95.88280 1150.000
95.98330 1038.000
96.08381 1043.000
96.18432 1084.000
96.28482 1002.000
96.38533 948.000
96.48584 950.000
96.58635 868.000
96.68685 920.000
96.78736 863.000
96.88787 910.000
96.98837 861.000
97.08888 795.000
97.18939 791.000
97.28989 755.000
97.39040 720.000
97.49091 710.000
97.59141 674.000
97.69192 701.000
97.79243 733.000
97.89294 691.000
97.99344 697.000
98.09395 654.000
98.19446 644.000
98.29496 674.000
98.39547 629.000
98.49598 674.000
98.59648 646.000
98.69699 616.000
98.79750 605.000
98.89800 610.000
98.99851 618.000
99.09902 670.000
99.19952 652.000
99.30003 616.000
99.40054 577.000
99.50105 580.000
99.60155 643.000
99.70206 615.000
99.80257 578.000
99.90307 559.000
100.00358 614.000
100.10409 612.000
100.20459 573.000
100.30510 598.000
100.40561 606.000
100.50611 598.000
100.60662 589.000
100.70713 562.000
100.80763 573.000
100.90814 561.000
101.00865 611.000
101.10916 595.000
101.20966 571.000
101.31017 617.000
101.41068 604.000
101.51118 652.000
101.61169 613.000
101.71220 615.000
101.81270 619.000
101.91321 587.000
102.01372 600.000
102.11422 601.000
102.21473 599.000
102.31524 587.000
102.41574 599.000
102.51625 584.000
102.61676 550.000
102.71727 610.000
102.81777 598.000
102.91828 600.000
103.01879 649.000
103.11929 607.000
103.21980 611.000
103.32031 602.000
103.42081 603.000
103.52132 656.000
103.62183 596.000
103.72233 642.000
103.82284 627.000
103.92335 588.000
104.02386 639.000
104.12436 630.000
104.22487 627.000
104.32538 608.000
104.42588 607.000
104.52639 678.000
104.62690 633.000
104.72740 661.000
104.82791 676.000
104.92842 699.000
105.02892 733.000
105.12943 746.000
105.22994 715.000
105.33044 736.000
105.43095 726.000
105.53146 771.000
105.63197 743.000
105.73247 760.000
105.83298 831.000
105.93349 751.000
106.03399 759.000
106.13450 787.000
106.23501 805.000
106.33551 785.000
106.43602 818.000
106.53653 808.000
106.63703 791.000
106.73754 789.000
106.83805 769.000
106.93855 839.000
107.03906 846.000
107.13957 798.000
107.24008 884.000
107.34058 851.000
107.44109 821.000
107.54160 833.000
107.64210 853.000
107.74261 844.000
107.84312 809.000
107.94362 864.000
108.04413 786.000
108.14464 802.000
108.24514 785.000
108.34565 802.000
108.44616 732.000
108.54666 774.000
108.64717 786.000
108.74768 795.000
108.84819 752.000
108.94869 757.000
109.04920 749.000
109.14971 773.000
109.25021 751.000
109.35072 752.000
109.45123 731.000
109.55173 751.000
109.65224 754.000
109.75275 753.000
109.85325 760.000
109.95376 746.000
110.05427 732.000
110.15477 788.000
110.25528 774.000
110.35579 739.000
110.45630 795.000
110.55680 769.000
110.65731 808.000
110.75782 805.000
110.85832 823.000
110.95883 786.000
111.05934 874.000
111.15984 839.000
111.26035 827.000
111.36086 871.000
111.46136 859.000
111.56187 886.000
111.66238 879.000
111.76289 892.000
111.86339 902.000
111.96390 905.000
112.06441 951.000
112.16491 945.000
112.26542 950.000
112.36593 943.000
112.46643 1014.000
112.56694 1024.000
112.66745 1000.000
112.76795 1008.000
112.86846 1079.000
112.96897 1139.000
113.06947 1051.000
113.16998 1134.000
113.27049 1141.000
113.37100 1124.000
113.47150 1159.000
113.57201 1276.000
113.67252 1217.000
113.77302 1276.000
113.87353 1243.000
113.97404 1280.000
114.07454 1302.000
114.17505 1343.000
114.27556 1324.000
114.37606 1346.000
114.47657 1340.000
114.57708 1359.000
114.67758 1305.000
114.77809 1378.000
114.87860 1321.000
114.97911 1301.000
115.07961 1346.000
115.18012 1343.000
115.28063 1349.000
115.38113 1330.000
115.48164 1271.000
115.58215 1357.000
115.68265 1263.000
115.78316 1282.000
115.88367 1264.000
115.98417 1252.000
116.08468 1361.000
116.18519 1259.000
116.28569 1185.000
116.38620 1241.000
116.48671 1289.000
116.58722 1207.000
116.68772 1155.000
116.78823 1250.000
116.88874 1157.000
116.98924 1172.000
117.08975 1148.000
117.19026 1118.000
117.29076 1115.000
117.39127 1081.000
117.49178 1137.000
117.59228 1066.000
117.69279 1046.000
117.79330 1038.000
117.89381 1027.000
117.99431 1017.000
118.09482 1051.000
118.19533 984.000
118.29583 1027.000
118.39634 1019.000
118.49685 895.000
118.59735 963.000
118.69786 926.000
118.79837 926.000
118.89887 910.000
118.99938 865.000
119.09989 893.000
119.20039 885.000
119.30090 848.000
119.40141 870.000
119.50192 815.000
119.60242 812.000
119.70293 810.000
119.80344 763.000
119.90394 792.000
120.00445 839.000
120.10496 796.000
120.20546 772.000
120.30597 805.000
120.40648 833.000
120.50698 765.000
120.60749 776.000
120.70800 782.000
120.80850 743.000
120.90901 726.000
121.00952 753.000
121.11003 744.000
121.21053 793.000
121.31104 699.000
121.41155 752.000
121.51205 740.000
121.61256 730.000
121.71307 757.000
121.81357 733.000
121.91408 696.000
122.01459 740.000
122.11509 756.000
122.21560 709.000
122.31611 691.000
122.41661 745.000
122.51712 783.000
122.61763 772.000
122.71814 784.000
122.81864 718.000
122.91915 738.000
123.01966 760.000
