20.00010 8333.000
20.10061 8180.000
20.20111 8039.000
20.30162 8619.000
20.40213 11457.000
20.50263 15099.000
20.60314 17207.000
20.70365 16964.000
20.80416 16519.000
20.90466 15956.000
21.00517 15389.000
21.10568 14757.000
21.20618 14406.000
21.30669 13901.000
21.40720 13466.000
21.50770 12912.000
21.60821 12642.000
21.70872 12095.000
21.80922 11556.000
21.90973 11183.000
22.01024 10532.000
22.11074 10308.000
22.21125 9869.000
22.31176 9447.000
22.41227 9117.000
22.51277 8823.000
22.61328 8746.000
22.71379 8766.000
22.81429 8672.000
22.91480 8632.000
23.01531 8789.000
23.11581 8692.000
23.21632 8512.000
23.31683 8818.000
23.41733 8874.000
23.51784 8564.000
23.61835 8780.000
23.71885 8637.000
23.81936 8684.000
23.91987 8298.000
24.02038 8321.000
24.12088 8340.000
24.22139 8402.000
24.32190 8162.000
24.42240 8275.000
24.52291 8170.000
24.62342 7879.000
24.72392 7662.000
24.82443 7744.000
24.92494 7634.000
25.02544 7422.000
25.12595 7419.000
25.22646 7201.000
25.32696 7210.000
25.42747 7054.000
25.52798 6984.000
25.62849 6878.000
25.72899 6710.000
25.82950 6831.000
25.93001 6653.000
26.03051 6437.000
26.13102 6571.000
26.23153 6508.000
26.33203 6412.000
26.43254 6550.000
26.53305 6525.000
26.63355 6611.000
26.73406 6500.000
26.83457 6682.000
26.93507 6859.000
27.03558 6840.000
27.13609 7226.000
27.23660 7149.000
27.33710 7360.000
27.43761 7813.000
27.53812 8194.000
27.63862 8663.000
27.73913 9401.000
27.83964 10033.000
27.94014 10943.000
28.04065 11912.000
28.14116 12854.000
28.24166 14217.000
28.34217 14979.000
28.44268 15649.000
28.54319 16150.000
28.64369 15832.000
28.74420 15069.000
28.84471 14192.000
28.94521 12892.000
29.04572 11641.000
29.14623 10541.000
29.24673 9377.000
29.34724 8413.000
29.44775 7615.000
29.54825 7152.000
29.64876 6625.000
29.74927 6135.000
29.84977 5922.000
29.95028 5824.000
30.05079 5523.000
30.15130 5169.000
30.25180 4887.000
30.35231 4498.000
30.45282 4349.000
30.55332 3952.000
30.65383 3765.000
30.75434 3353.000
30.85484 3121.000
30.95535 2962.000
31.05586 2743.000
31.15636 2676.000
31.25687 2617.000
31.35738 2608.000
31.45788 2706.000
31.55839 2596.000
31.65890 2702.000
31.75941 2716.000
31.85991 2716.000
31.96042 2751.000
32.06093 2946.000
32.16143 3070.000
32.26194 3032.000
32.36245 3333.000
32.46295 3575.000
32.56346 4072.000
32.66397 4426.000
32.76447 4887.000
32.86498 5145.000
32.96549 5281.000
33.06599 5479.000
33.16650 5477.000
33.26701 5136.000
33.36752 4847.000
33.46802 4416.000
33.56853 4354.000
33.66904 4128.000
33.76954 3870.000
33.87005 3971.000
33.97056 3924.000
34.07106 3954.000
34.17157 4067.000
34.27208 3992.000
34.37258 4071.000
34.47309 4075.000
34.57360 4006.000
34.67411 3912.000
34.77461 3779.000
34.87512 3692.000
34.97563 3685.000
35.07613 3544.000
35.17664 3398.000
35.27715 3482.000
35.37765 3500.000
35.47816 3362.000
35.57867 3464.000
35.67917 3297.000
35.77968 3230.000
35.88019 3070.000
35.98069 3101.000
36.08120 3000.000
36.18171 2875.000
36.28222 2895.000
36.38272 2870.000
36.48323 2873.000
36.58374 2783.000
36.68424 2764.000
36.78475 2660.000
36.88526 2746.000
36.98576 2636.000
37.08627 2701.000
37.18678 2646.000
37.28728 2551.000
37.38779 2629.000
37.48830 2623.000
37.58880 2606.000
37.68931 2537.000
37.78982 2530.000
37.89033 2528.000
37.99083 2549.000
38.09134 2507.000
38.19185 2451.000
38.29235 2412.000
38.39286 2427.000
38.49337 2396.000
38.59387 2403.000
38.69438 2376.000
38.79489 2327.000
38.89539 2202.000
38.99590 2220.000
39.09641 2069.000
39.19691 2014.000
39.29742 1836.000
39.39793 1731.000
39.49844 1667.000
39.59894 1533.000
39.69945 1422.000
39.79996 1362.000
39.90046 1277.000
40.00097 1239.000
40.10148 1200.000
40.20198 1200.000
40.30249 1189.000
40.40300 1212.000
40.50350 1203.000
40.60401 1113.000
40.70452 1099.000
40.80502 1115.000
40.90553 1102.000
41.00604 1083.000
41.10655 1132.000
41.20705 1056.000
41.30756 1038.000
41.40807 1028.000
41.50857 1061.000
41.60908 1070.000
41.70959 1039.000
41.81009 1100.000
41.91060 1067.000
42.01111 1101.000
42.11161 1085.000
42.21212 997.000
42.31263 1061.000
42.41314 1087.000
42.51364 1085.000
42.61415 1051.000
42.71466 1087.000
42.81516 1084.000
42.91567 1074.000
43.01618 1177.000
43.11668 1045.000
43.21719 1051.000
43.31770 1125.000
43.41820 1104.000
43.51871 1021.000
43.61922 1116.000
43.71972 1126.000
43.82023 1069.000
43.92074 1115.000
44.02125 1082.000
44.12175 1146.000
44.22226 1136.000
44.32277 1140.000
44.42327 1109.000
44.52378 1122.000
44.62429 1194.000
44.72479 1133.000
44.82530 1227.000
44.92581 1289.000
45.02631 1274.000
45.12682 1288.000
45.22733 1326.000
45.32783 1434.000
45.42834 1473.000
45.52885 1528.000
45.62936 1601.000
45.72986 1622.000
45.83037 1779.000
45.93088 1948.000
46.03138 2034.000
46.13189 2274.000
46.23240 2508.000
46.33290 2618.000
46.43341 2840.000
46.53392 3060.000
46.63442 3411.000
46.73493 3639.000
46.83544 4205.000
46.93594 4541.000
47.03645 4651.000
47.13696 4975.000
47.23747 5383.000
47.33797 5420.000
47.43848 5696.000
47.53899 5527.000
47.63949 5355.000
47.74000 5097.000
47.84051 4736.000
47.94101 4447.000
48.04152 3991.000
48.14203 3797.000
48.24253 3417.000
48.34304 2997.000
48.44355 2736.000
48.54406 2535.000
48.64456 2293.000
48.74507 2180.000
48.84558 1938.000
48.94608 1872.000
49.04659 1757.000
49.14710 1670.000
49.24760 1595.000
49.34811 1505.000
49.44862 1440.000
49.54912 1366.000
49.64963 1284.000
49.75014 1340.000
49.85064 1296.000
49.95115 1202.000
50.05166 1271.000
50.15217 1166.000
50.25267 1170.000
50.35318 1088.000
50.45369 1145.000
50.55419 1080.000
50.65470 1030.000
50.75521 1146.000
50.85571 1044.000
50.95622 1049.000
51.05673 943.000
51.15723 1014.000
51.25774 1075.000
51.35825 975.000
51.45875 974.000
51.55926 992.000
51.65977 974.000
51.76028 970.000
51.86078 972.000
51.96129 1006.000
52.06180 1032.000
52.16230 1016.000
52.26281 989.000
52.36332 948.000
52.46382 922.000
52.56433 1019.000
52.66484 961.000
52.76534 1021.000
52.86585 986.000
52.96636 1012.000
53.06686 1042.000
53.16737 1012.000
53.26788 1096.000
53.36839 1040.000
53.46889 1076.000
53.56940 1129.000
53.66991 1108.000
53.77041 1173.000
53.87092 1178.000
53.97143 1237.000
54.07193 1255.000
54.17244 1356.000
54.27295 1337.000
54.37345 1424.000
54.47396 1447.000
54.57447 1568.000
54.67497 1634.000
54.77548 1720.000
54.87599 1849.000
54.97650 1946.000
55.07700 2105.000
55.17751 2254.000
55.27802 2423.000
55.37852 2527.000
55.47903 2764.000
55.57954 2902.000
55.68004 3269.000
55.78055 3438.000
55.88106 3706.000
55.98156 3814.000
56.08207 4031.000
56.18258 4088.000
56.28309 4296.000
56.38359 4086.000
56.48410 4048.000
56.58461 3957.000
56.68511 3764.000
56.78562 3436.000
56.88613 3207.000
56.98663 3018.000
57.08714 2697.000
57.18765 2490.000
57.28815 2302.000
57.38866 2213.000
57.48917 2051.000
57.58967 1915.000
57.69018 1837.000
57.79069 1810.000
57.89120 1557.000
57.99170 1575.000
58.09221 1587.000
58.19272 1436.000
58.29322 1435.000
58.39373 1522.000
58.49424 1425.000
58.59474 1455.000
58.69525 1392.000
58.79576 1425.000
58.89626 1377.000
58.99677 1371.000
59.09728 1388.000
59.19778 1404.000
59.29829 1461.000
59.39880 1291.000
59.49931 1216.000
59.59981 1222.000
59.70032 1178.000
59.80083 1142.000
59.90133 1119.000
60.00184 1024.000
60.10235 996.000
60.20285 1043.000
60.30336 959.000
60.40387 922.000
60.50437 874.000
60.60488 957.000
60.70539 907.000
60.80589 861.000
60.90640 874.000
61.00691 872.000
61.10742 855.000
61.20792 825.000
61.30843 824.000
61.40894 812.000
61.50944 812.000
61.60995 803.000
61.71046 818.000
61.81096 776.000
61.91147 727.000
62.01198 775.000
62.11248 776.000
62.21299 743.000
62.31350 756.000
62.41401 739.000
62.51451 725.000
62.61502 733.000
62.71553 671.000
62.81603 747.000
62.91654 662.000
63.01705 680.000
63.11755 741.000
63.21806 685.000
63.31857 709.000
63.41907 661.000
63.51958 685.000
63.62009 693.000
63.72059 648.000
63.82110 690.000
63.92161 726.000
64.02212 663.000
64.12262 636.000
64.22313 681.000
64.32364 624.000
64.42414 660.000
64.52465 693.000
64.62516 659.000
64.72566 623.000
64.82617 659.000
64.92668 667.000
65.02718 658.000
65.12769 677.000
65.22820 658.000
65.32870 627.000
65.42921 648.000
65.52972 633.000
65.63023 670.000
65.73073 730.000
65.83124 672.000
65.93175 680.000
66.03225 686.000
66.13276 718.000
66.23327 716.000
66.33377 707.000
66.43428 749.000
66.53479 700.000
66.63529 735.000
66.73580 715.000
66.83631 702.000
66.93681 753.000
67.03732 761.000
67.13783 720.000
67.23834 687.000
67.33884 701.000
67.43935 735.000
67.53986 754.000
67.64036 685.000
67.74087 809.000
67.84138 859.000
67.94188 867.000
68.04239 868.000
68.14290 875.000
68.24340 960.000
68.34391 927.000
68.44442 992.000
68.54492 1044.000
68.64543 1020.000
68.74594 1038.000
68.84645 1180.000
68.94695 1226.000
69.04746 1227.000
69.14797 1241.000
69.24847 1304.000
69.34898 1242.000
69.44949 1299.000
69.54999 1180.000
69.65050 1142.000
69.75101 1246.000
69.85151 1092.000
69.95202 1055.000
70.05253 1023.000
70.15304 927.000
70.25354 938.000
70.35405 927.000
70.45456 851.000
70.55506 841.000
70.65557 822.000
70.75608 743.000
70.85658 731.000
70.95709 750.000
71.05760 747.000
71.15810 681.000
71.25861 645.000
71.35912 651.000
71.45962 661.000
71.56013 666.000
71.66064 602.000
71.76115 707.000
71.86165 683.000
71.96216 685.000
72.06267 638.000
72.16317 670.000
72.26368 681.000
72.36419 740.000
72.46469 652.000
72.56520 643.000
72.66571 687.000
72.76621 689.000
72.86672 724.000
72.96723 694.000
73.06773 705.000
73.16824 682.000
73.26875 696.000
73.36926 752.000
73.46976 710.000
73.57027 742.000
73.67078 782.000
73.77128 784.000
73.87179 723.000
73.97230 761.000
74.07280 799.000
74.17331 790.000
74.27382 805.000
74.37432 852.000
74.47483 860.000
74.57534 862.000
74.67584 914.000
74.77635 916.000
74.87686 1003.000
74.97737 961.000
75.07787 1038.000
75.17838 1061.000
75.27889 1071.000
75.37939 1065.000
75.47990 1166.000
75.58041 1227.000
75.68091 1293.000
75.78142 1313.000
75.88193 1365.000
75.98243 1364.000
76.08294 1446.000
76.18345 1513.000
76.28396 1557.000
76.38446 1575.000
76.48497 1574.000
76.58548 1590.000
76.68598 1660.000
76.78649 1579.000
76.88700 1562.000
76.98750 1561.000
77.08801 1562.000
77.18852 1575.000
77.28902 1452.000
77.38953 1408.000
77.49004 1531.000
77.59054 1492.000
77.69105 1515.000
77.79156 1452.000
77.89207 1400.000
77.99257 1353.000
78.09308 1425.000
78.19359 1390.000
78.29409 1371.000
78.39460 1311.000
78.49511 1396.000
78.59561 1383.000
78.69612 1450.000
78.79663 1391.000
78.89713 1382.000
78.99764 1338.000
79.09815 1328.000
79.19865 1356.000
79.29916 1271.000
79.39967 1244.000
79.50018 1248.000
79.60068 1196.000
79.70119 1222.000
79.80170 1128.000
79.90220 1100.000
80.00271 1027.000
80.10322 1000.000
80.20372 975.000
80.30423 1013.000
80.40474 892.000
80.50524 890.000
80.60575 824.000
80.70626 888.000
80.80676 848.000
80.90727 786.000
81.00778 813.000
81.10829 768.000
81.20879 735.000
81.30930 750.000
81.40981 769.000
81.51031 778.000
81.61082 746.000
81.71133 744.000
81.81183 673.000
81.91234 705.000
82.01285 695.000
82.11335 684.000
82.21386 642.000
82.31437 670.000
82.41487 691.000
82.51538 651.000
82.61589 714.000
82.71640 620.000
82.81690 658.000
82.91741 693.000
83.01792 657.000
83.11842 642.000
83.21893 655.000
83.31944 656.000
83.41994 675.000
83.52045 656.000
83.62096 654.000
83.72146 643.000
83.82197 642.000
83.92248 646.000
84.02299 645.000
84.12349 653.000
84.22400 703.000
84.32451 680.000
84.42501 684.000
84.52552 641.000
84.62603 679.000
84.72653 686.000
84.82704 685.000
84.92755 741.000
85.02805 685.000
85.12856 741.000
85.22907 693.000
85.32957 704.000
85.43008 744.000
85.53059 763.000
85.63110 766.000
85.73160 778.000
85.83211 734.000
85.93262 795.000
86.03312 769.000
86.13363 829.000
86.23414 828.000
86.33464 842.000
86.43515 857.000
86.53566 876.000
86.63616 916.000
86.73667 901.000
86.83718 938.000
86.93768 963.000
87.03819 1096.000
87.13870 1003.000
87.23921 1015.000
87.33971 1133.000
87.44022 1197.000
87.54073 1160.000
87.64123 1162.000
87.74174 1188.000
87.84225 1233.000
87.94275 1168.000
88.04326 1279.000
88.14377 1288.000
88.24427 1283.000
88.34478 1308.000
88.44529 1285.000
88.54579 1302.000
88.64630 1205.000
88.74681 1212.000
88.84732 1196.000
88.94782 1165.000
89.04833 1135.000
89.14884 1032.000
89.24934 1041.000
89.34985 1048.000
89.45036 1013.000
89.55086 1011.000
89.65137 982.000
89.75188 886.000
89.85238 906.000
89.95289 910.000
90.05340 893.000
90.15391 864.000
90.25441 857.000
90.35492 870.000
90.45543 798.000
90.55593 848.000
90.65644 803.000
90.75695 854.000
90.85745 829.000
90.95796 703.000
91.05847 798.000
91.15897 701.000
91.25948 740.000
91.35999 728.000
91.46049 759.000
91.56100 737.000
91.66151 769.000
91.76202 712.000
91.86252 715.000
91.96303 755.000
92.06354 788.000
92.16404 745.000
92.26455 738.000
92.36506 800.000
92.46556 786.000
92.56607 800.000
92.66658 781.000
92.76708 805.000
92.86759 763.000
92.96810 849.000
93.06860 817.000
93.16911 808.000
93.26962 870.000
93.37013 898.000
93.47063 885.000
93.57114 914.000
93.67165 887.000
93.77215 945.000
93.87266 952.000
93.97317 991.000
94.07367 1001.000
94.17418 1028.000
94.27469 1027.000
94.37519 1112.000
94.47570 1107.000
94.57621 1160.000
94.67671 1163.000
94.77722 1150.000
94.87773 1214.000
94.97824 1149.000
95.07874 1176.000
95.17925 1186.000
95.27976 1186.000
95.38026 1198.000
95.48077 1212.000
95.58128 1182.000
95.68178 1123.000
95.78229 1133.000
95.88280 1054.000
95.98330 1086.000
96.08381 1014.000
96.18432 1024.000
96.28482 1032.000
96.38533 990.000
96.48584 954.000
96.58635 944.000
96.68685 832.000
96.78736 914.000
96.88787 880.000
96.98837 804.000
97.08888 831.000
97.18939 812.000
97.28989 751.000
97.39040 732.000
97.49091 718.000
97.59141 704.000
97.69192 667.000
97.79243 703.000
97.89294 664.000
97.99344 679.000
98.09395 700.000
98.19446 681.000
98.29496 685.000
98.39547 694.000
98.49598 681.000
98.59648 608.000
98.69699 629.000
98.79750 652.000
98.89800 664.000
98.99851 629.000
99.09902 631.000
99.19952 623.000
99.30003 635.000
99.40054 563.000
99.50105 584.000
99.60155 617.000
99.70206 589.000
99.80257 619.000
99.90307 639.000
100.00358 595.000
100.10409 605.000
100.20459 614.000
100.30510 570.000
100.40561 559.000
100.50611 609.000
100.60662 582.000
100.70713 597.000
100.80763 604.000
100.90814 576.000
101.00865 559.000
101.10916 604.000
101.20966 593.000
101.31017 565.000
101.41068 551.000
101.51118 604.000
101.61169 571.000
101.71220 600.000
101.81270 598.000
101.91321 554.000
102.01372 593.000
102.11422 575.000
102.21473 566.000
102.31524 605.000
102.41574 611.000
102.51625 573.000
102.61676 553.000
102.71727 602.000
102.81777 597.000
102.91828 547.000
103.01879 562.000
103.11929 594.000
103.21980 559.000
103.32031 588.000
103.42081 603.000
103.52132 629.000
103.62183 653.000
103.72233 584.000
103.82284 584.000
103.92335 623.000
104.02386 609.000
104.12436 651.000
104.22487 611.000
104.32538 697.000
104.42588 669.000
104.52639 695.000
104.62690 680.000
104.72740 667.000
104.82791 655.000
104.92842 658.000
105.02892 658.000
105.12943 693.000
105.22994 679.000
105.33044 775.000
105.43095 735.000
105.53146 713.000
105.63197 706.000
105.73247 793.000
105.83298 765.000
105.93349 791.000
106.03399 728.000
106.13450 823.000
106.23501 756.000
106.33551 776.000
106.43602 801.000
106.53653 836.000
106.63703 794.000
106.73754 754.000
106.83805 832.000
106.93855 773.000
107.03906 844.000
107.13957 797.000
107.24008 839.000
107.34058 838.000
107.44109 795.000
107.54160 833.000
107.64210 870.000
107.74261 741.000
107.84312 789.000
107.94362 830.000
108.04413 843.000
108.14464 755.000
108.24514 858.000
108.34565 718.000
108.44616 792.000
108.54666 779.000
108.64717 748.000
108.74768 750.000
108.84819 786.000
108.94869 788.000
109.04920 793.000
109.14971 744.000
109.25021 761.000
109.35072 759.000
109.45123 751.000
109.55173 832.000
109.65224 782.000
109.75275 777.000
109.85325 771.000
109.95376 799.000
110.05427 766.000
110.15477 761.000
110.25528 804.000
110.35579 755.000
110.45630 740.000
110.55680 763.000
110.65731 759.000
110.75782 850.000
110.85832 822.000
110.95883 806.000
111.05934 832.000
111.15984 849.000
111.26035 843.000
111.36086 858.000
111.46136 837.000
111.56187 896.000
111.66238 862.000
111.76289 876.000
111.86339 908.000
111.96390 948.000
112.06441 908.000
112.16491 985.000
112.26542 947.000
112.36593 970.000
112.46643 1027.000
112.56694 1054.000
112.66745 1041.000
112.76795 1100.000
112.86846 1090.000
112.96897 1119.000
113.06947 1147.000
113.16998 1152.000
113.27049 1154.000
113.37100 1149.000
113.47150 1141.000
113.57201 1219.000
113.67252 1208.000
113.77302 1235.000
113.87353 1245.000
113.97404 1234.000
114.07454 1324.000
114.17505 1295.000
114.27556 1291.000
114.37606 1316.000
114.47657 1348.000
114.57708 1278.000
114.67758 1351.000
114.77809 1309.000
114.87860 1295.000
114.97911 1283.000
115.07961 1374.000
115.18012 1368.000
115.28063 1356.000
115.38113 1269.000
115.48164 1259.000
115.58215 1275.000
115.68265 1244.000
115.78316 1288.000
115.88367 1249.000
115.98417 1216.000
116.08468 1313.000
116.18519 1165.000
116.28569 1226.000
116.38620 1222.000
116.48671 1223.000
116.58722 1194.000
116.68772 1211.000
116.78823 1193.000
116.88874 1173.000
116.98924 1185.000
117.08975 1128.000
117.19026 1124.000
117.29076 1128.000
117.39127 1108.000
117.49178 1052.000
117.59228 1076.000
117.69279 1102.000
117.79330 1082.000
117.89381 1020.000
117.99431 1043.000
118.09482 969.000
118.19533 965.000
118.29583 989.000
118.39634 959.000
118.49685 928.000
118.59735 941.000
118.69786 912.000
118.79837 919.000
118.89887 892.000
118.99938 958.000
119.09989 903.000
119.20039 814.000
119.30090 908.000
119.40141 909.000
119.50192 857.000
119.60242 822.000
119.70293 809.000
119.80344 839.000
119.90394 800.000
120.00445 815.000
120.10496 818.000
120.20546 862.000
120.30597 810.000
120.40648 745.000
120.50698 774.000
120.60749 739.000
120.70800 741.000
120.80850 805.000
120.90901 781.000
121.00952 767.000
121.11003 774.000
121.21053 765.000
121.31104 789.000
121.41155 719.000
121.51205 751.000
121.61256 835.000
121.71307 780.000
121.81357 729.000
121.91408 766.000
122.01459 730.000
122.11509 726.000
122.21560 755.000
122.31611 713.000
122.41661 746.000
122.51712 739.000
122.61763 716.000
122.71814 784.000
122.81864 766.000
122.91915 754.000
123.01966 761.000
