20.00010 8491.000
20.10061 8000.000
20.20111 7891.000
20.30162 8803.000
20.40213 11715.000
20.50263 14962.000
20.60314 17447.000
20.70365 16925.000
20.80416 16516.000
20.90466 15825.000
21.00517 15111.000
21.10568 14641.000
21.20618 14354.000
21.30669 14030.000
21.40720 13429.000
21.50770 12899.000
21.60821 12617.000
21.70872 12166.000
21.80922 11661.000
21.90973 11288.000
22.01024 10792.000
22.11074 10099.000
22.21125 9597.000
22.31176 9344.000
22.41227 9173.000
22.51277 8908.000
22.61328 8734.000
22.71379 8850.000
22.81429 8715.000
22.91480 8766.000
23.01531 8669.000
23.11581 8733.000
23.21632 8782.000
23.31683 8759.000
23.41733 8735.000
23.51784 8713.000
23.61835 8583.000
23.71885 8635.000
23.81936 8580.000
23.91987 8306.000
24.02038 8371.000
24.12088 8112.000
24.22139 8226.000
24.32190 8235.000
24.42240 8060.000
24.52291 7933.000
24.62342 7832.000
24.72392 7778.000
24.82443 7845.000
24.92494 7491.000
25.02544 7232.000
25.12595 7250.000
25.22646 7252.000
25.32696 7100.000
25.42747 6901.000
25.52798 6819.000
25.62849 7005.000
25.72899 6769.000
25.82950 6731.000
25.93001 6608.000
26.03051 6613.000
26.13102 6626.000
26.23153 6637.000
26.33203 6511.000
26.43254 6509.000
26.53305 6501.000
26.63355 6469.000
26.73406 6608.000
26.83457 6651.000
26.93507 6696.000
27.03558 6801.000
27.13609 7036.000
27.23660 7221.000
27.33710 7463.000
27.43761 7868.000
27.53812 8046.000
27.63862 8898.000
27.73913 9273.000
27.83964 10064.000
27.94014 10881.000
28.04065 12176.000
28.14116 12991.000
28.24166 14120.000
28.34217 15138.000
28.44268 16083.000
28.54319 16124.000
28.64369 15812.000
28.74420 15295.000
28.84471 14098.000
28.94521 12988.000
29.04572 11655.000
29.14623 10308.000
29.24673 9201.000
29.34724 8505.000
29.44775 7638.000
29.54825 7221.000
29.64876 6669.000
29.74927 6260.000
29.84977 5944.000
29.95028 5640.000
30.05079 5572.000
30.15130 5298.000
30.25180 4916.000
30.35231 4497.000
30.45282 4331.000
30.55332 4102.000
30.65383 3669.000
30.75434 3402.000
30.85484 3113.000
30.95535 2951.000
31.05586 2721.000
31.15636 2655.000
31.25687 2667.000
31.35738 2704.000
31.45788 2720.000
31.55839 2640.000
31.65890 2629.000
31.75941 2594.000
31.85991 2742.000
31.96042 2768.000
32.06093 2874.000
32.16143 3006.000
32.26194 3170.000
32.36245 3404.000
32.46295 3771.000
32.56346 3992.000
32.66397 4395.000
32.76447 4805.000
32.86498 5165.000
32.96549 5322.000
33.06599 5548.000
33.16650 5489.000
33.26701 5279.000
33.36752 4785.000
33.46802 4497.000
33.56853 4277.000
33.66904 3916.000
33.76954 3882.000
33.87005 3857.000
33.97056 3862.000
34.07106 3870.000
34.17157 4005.000
34.27208 4046.000
34.37258 4102.000
34.47309 4076.000
34.57360 3953.000
34.67411 3999.000
34.77461 3813.000
34.87512 3729.000
34.97563 3619.000
35.07613 3547.000
35.17664 3524.000
35.27715 3431.000
35.37765 3505.000
35.47816 3455.000
35.57867 3318.000
35.67917 3261.000
35.77968 3172.000
35.88019 3152.000
35.98069 3147.000
36.08120 2918.000
36.18171 3029.000
36.28222 2987.000
36.38272 2924.000
36.48323 2750.000
36.58374 2648.000
36.68424 2697.000
36.78475 2775.000
36.88526 2625.000
36.98576 2659.000
37.08627 2658.000
37.18678 2724.000
37.28728 2652.000
37.38779 2768.000
37.48830 2573.000
37.58880 2624.000
37.68931 2539.000
37.78982 2599.000
37.89033 2543.000
37.99083 2465.000
38.09134 2509.000
38.19185 2416.000
38.29235 2433.000
38.39286 2385.000
38.49337 2309.000
38.59387 2415.000
38.69438 2364.000
38.79489 2296.000
38.89539 2240.000
38.99590 2041.000
39.09641 2014.000
39.19691 1967.000
39.29742 1917.000
39.39793 1774.000
39.49844 1654.000
39.59894 1594.000
39.69945 1447.000
39.79996 1362.000
39.90046 1297.000
40.00097 1302.000
40.10148 1187.000
40.20198 1266.000
40.30249 1118.000
40.40300 1158.000
40.50350 1124.000
40.60401 1092.000
40.70452 1110.000
40.80502 1031.000
40.90553 1089.000
41.00604 1066.000
41.10655 1041.000
41.20705 1093.000
41.30756 1015.000
41.40807 1039.000
41.50857 1057.000
41.60908 1078.000
41.70959 1072.000
41.81009 1038.000
41.91060 1036.000
42.01111 1074.000
42.11161 1063.000
42.21212 1123.000
42.31263 1043.000
42.41314 1060.000
42.51364 1052.000
42.61415 1036.000
42.71466 1038.000
42.81516 1016.000
42.91567 1075.000
43.01618 1128.000
43.11668 1047.000
43.21719 1068.000
43.31770 1112.000
43.41820 1115.000
43.51871 1057.000
43.61922 1075.000
43.71972 1065.000
43.82023 1094.000
43.92074 1053.000
44.02125 1101.000
44.12175 1076.000
44.22226 1109.000
44.32277 1125.000
44.42327 1100.000
44.52378 1126.000
44.62429 1139.000
44.72479 1219.000
44.82530 1253.000
44.92581 1308.000
45.02631 1301.000
45.12682 1326.000
45.22733 1339.000
45.32783 1361.000
45.42834 1427.000
45.52885 1435.000
45.62936 1558.000
45.72986 1684.000
45.83037 1761.000
45.93088 1858.000
46.03138 2108.000
46.13189 2209.000
46.23240 2406.000
46.33290 2597.000
46.43341 2898.000
46.53392 3105.000
46.63442 3290.000
46.73493 3791.000
46.83544 4112.000
46.93594 4557.000
47.03645 4750.000
47.13696 5088.000
47.23747 5294.000
47.33797 5470.000
47.43848 5501.000
47.53899 5618.000
47.63949 5284.000
47.74000 5099.000
47.84051 4641.000
47.94101 4350.000
48.04152 4094.000
48.14203 3724.000
48.24253 3223.000
48.34304 2887.000
48.44355 2805.000
48.54406 2449.000
48.64456 2197.000
48.74507 2194.000
48.84558 1903.000
48.94608 1851.000
49.04659 1675.000
49.14710 1653.000
49.24760 1524.000
49.34811 1466.000
49.44862 1368.000
49.54912 1352.000
49.64963 1286.000
49.75014 1277.000
49.85064 1254.000
49.95115 1186.000
50.05166 1218.000
50.15217 1147.000
50.25267 1110.000
50.35318 1080.000
50.45369 1103.000
50.55419 1029.000
50.65470 1038.000
50.75521 1060.000
50.85571 1055.000
50.95622 1024.000
51.05673 1037.000
51.15723 1039.000
51.25774 1050.000
51.35825 964.000
51.45875 977.000
51.55926 916.000
51.65977 1017.000
51.76028 1017.000
51.86078 967.000
51.96129 1031.000
52.06180 941.000
52.16230 1008.000
52.26281 1001.000
52.36332 985.000
52.46382 1045.000
52.56433 1008.000
52.66484 947.000
52.76534 1038.000
52.86585 1021.000
52.96636 1035.000
53.06686 1111.000
53.16737 1027.000
53.26788 1089.000
53.36839 1143.000
53.46889 1106.000
53.56940 1107.000
53.66991 1099.000
53.77041 1114.000
53.87092 1193.000
53.97143 1246.000
54.07193 1315.000
54.17244 1328.000
54.27295 1332.000
54.37345 1390.000
54.47396 1511.000
54.57447 1442.000
54.67497 1631.000
54.77548 1746.000
54.87599 1784.000
54.97650 1974.000
55.07700 2034.000
55.17751 2175.000
55.27802 2467.000
55.37852 2547.000
55.47903 2865.000
55.57954 3124.000
55.68004 3272.000
55.78055 3467.000
55.88106 3603.000
55.98156 3853.000
56.08207 3972.000
56.18258 4161.000
56.28309 4160.000
56.38359 4019.000
56.48410 4147.000
56.58461 3921.000
56.68511 3599.000
56.78562 3421.000
56.88613 3175.000
56.98663 3014.000
57.08714 2735.000
57.18765 2446.000
57.28815 2361.000
57.38866 2222.000
57.48917 2063.000
57.58967 1917.000
57.69018 1831.000
57.79069 1731.000
57.89120 1680.000
57.99170 1487.000
58.09221 1498.000
58.19272 1489.000
58.29322 1558.000
58.39373 1453.000
58.49424 1515.000
58.59474 1515.000
58.69525 1452.000
58.79576 1460.000
58.89626 1435.000
58.99677 1414.000
59.09728 1368.000
59.19778 1400.000
59.29829 1328.000
59.39880 1319.000
59.49931 1210.000
59.59981 1192.000
59.70032 1216.000
59.80083 1146.000
59.90133 1091.000
60.00184 1077.000
60.10235 1045.000
60.20285 1002.000
60.30336 1046.000
60.40387 946.000
60.50437 946.000
60.60488 923.000
60.70539 914.000
60.80589 861.000
60.90640 821.000
61.00691 863.000
61.10742 896.000
61.20792 791.000
61.30843 828.000
61.40894 852.000
61.50944 845.000
61.60995 783.000
61.71046 824.000
61.81096 814.000
61.91147 730.000
62.01198 732.000
62.11248 762.000
62.21299 730.000
62.31350 749.000
62.41401 743.000
62.51451 774.000
62.61502 695.000
62.71553 755.000
62.81603 642.000
62.91654 715.000
63.01705 700.000
63.11755 715.000
63.21806 739.000
63.31857 674.000
63.41907 690.000
63.51958 678.000
63.62009 706.000
63.72059 699.000
63.82110 676.000
63.92161 655.000
64.02212 667.000
64.12262 652.000
64.22313 646.000
64.32364 652.000
64.42414 701.000
64.52465 639.000
64.62516 631.000
64.72566 658.000
64.82617 670.000
64.92668 663.000
65.02718 654.000
65.12769 704.000
65.22820 707.000
65.32870 661.000
65.42921 642.000
65.52972 637.000
65.63023 639.000
65.73073 654.000
65.83124 655.000
65.93175 686.000
66.03225 681.000
66.13276 722.000
66.23327 770.000
66.33377 712.000
66.43428 677.000
66.53479 688.000
66.63529 703.000
66.73580 654.000
66.83631 745.000
66.93681 690.000
67.03732 690.000
67.13783 706.000
67.23834 713.000
67.33884 785.000
67.43935 763.000
67.53986 766.000
67.64036 791.000
67.74087 805.000
67.84138 823.000
67.94188 828.000
68.04239 858.000
68.14290 921.000
68.24340 940.000
68.34391 917.000
68.44442 1086.000
68.54492 1028.000
68.64543 1056.000
68.74594 1105.000
68.84645 1219.000
68.94695 1219.000
69.04746 1243.000
69.14797 1267.000
69.24847 1277.000
69.34898 1239.000
69.44949 1272.000
69.54999 1255.000
69.65050 1187.000
69.75101 1153.000
69.85151 1128.000
69.95202 1029.000
70.05253 1065.000
70.15304 945.000
70.25354 889.000
70.35405 852.000
70.45456 873.000
70.55506 847.000
70.65557 783.000
70.75608 802.000
70.85658 761.000
70.95709 734.000
71.05760 718.000
71.15810 735.000
71.25861 649.000
71.35912 722.000
71.45962 708.000
71.56013 688.000
71.66064 703.000
71.76115 733.000
71.86165 624.000
71.96216 657.000
72.06267 675.000
72.16317 680.000
72.26368 685.000
72.36419 679.000
72.46469 695.000
72.56520 687.000
72.66571 680.000
72.76621 699.000
72.86672 661.000
72.96723 647.000
73.06773 677.000
73.16824 714.000
73.26875 690.000
73.36926 692.000
73.46976 730.000
73.57027 723.000
73.67078 762.000
73.77128 778.000
73.87179 775.000
73.97230 793.000
74.07280 808.000
74.17331 807.000
74.27382 771.000
74.37432 817.000
74.47483 832.000
74.57534 834.000
74.67584 882.000
74.77635 917.000
74.87686 961.000
74.97737 974.000
75.07787 1093.000
75.17838 1085.000
75.27889 1140.000
75.37939 1158.000
75.47990 1195.000
75.58041 1282.000
75.68091 1270.000
75.78142 1383.000
75.88193 1371.000
75.98243 1411.000
76.08294 1488.000
76.18345 1504.000
76.28396 1537.000
76.38446 1560.000
76.48497 1559.000
76.58548 1595.000
76.68598 1679.000
76.78649 1604.000
76.88700 1584.000
76.98750 1546.000
77.08801 1559.000
77.18852 1528.000
77.28902 1528.000
77.38953 1474.000
77.49004 1536.000
77.59054 1509.000
77.69105 1514.000
77.79156 1463.000
77.89207 1407.000
77.99257 1413.000
78.09308 1391.000
78.19359 1424.000
78.29409 1363.000
78.39460 1410.000
78.49511 1467.000
78.59561 1367.000
78.69612 1386.000
78.79663 1428.000
78.89713 1417.000
78.99764 1395.000
79.09815 1323.000
79.19865 1361.000
79.29916 1335.000
79.39967 1261.000
79.50018 1227.000
79.60068 1219.000
79.70119 1117.000
79.80170 1145.000
79.90220 1060.000
80.00271 1007.000
80.10322 1023.000
80.20372 945.000
80.30423 851.000
80.40474 938.000
80.50524 896.000
80.60575 816.000
80.70626 877.000
80.80676 812.000
80.90727 781.000
81.00778 778.000
81.10829 790.000
81.20879 760.000
81.30930 797.000
81.40981 709.000
81.51031 735.000
81.61082 693.000
81.71133 688.000
81.81183 710.000
81.91234 718.000
82.01285 704.000
82.11335 699.000
82.21386 691.000
82.31437 637.000
82.41487 668.000
82.51538 690.000
82.61589 663.000
82.71640 736.000
82.81690 633.000
82.91741 636.000
83.01792 707.000
83.11842 643.000
83.21893 688.000
83.31944 733.000
83.41994 637.000
83.52045 675.000
83.62096 640.000
83.72146 681.000
83.82197 694.000
83.92248 683.000
84.02299 664.000
84.12349 661.000
84.22400 667.000
84.32451 709.000
84.42501 629.000
84.52552 665.000
84.62603 632.000
84.72653 643.000
84.82704 700.000
84.92755 657.000
85.02805 676.000
85.12856 694.000
85.22907 727.000
85.32957 703.000
85.43008 731.000
85.53059 774.000
85.63110 775.000
85.73160 763.000
85.83211 804.000
85.93262 740.000
86.03312 867.000
86.13363 773.000
86.23414 846.000
86.33464 872.000
86.43515 927.000
86.53566 885.000
86.63616 908.000
86.73667 917.000
86.83718 972.000
86.93768 1035.000
87.03819 1030.000
87.13870 1036.000
87.23921 1072.000
87.33971 1115.000
87.44022 1126.000
87.54073 1130.000
87.64123 1168.000
87.74174 1241.000
87.84225 1212.000
87.94275 1171.000
88.04326 1227.000
88.14377 1310.000
88.24427 1288.000
88.34478 1353.000
88.44529 1232.000
88.54579 1260.000
88.64630 1275.000
88.74681 1230.000
88.84732 1214.000
88.94782 1175.000
89.04833 1109.000
89.14884 1134.000
89.24934 1068.000
89.34985 1076.000
89.45036 1051.000
89.55086 949.000
89.65137 919.000
89.75188 940.000
89.85238 911.000
89.95289 897.000
90.05340 827.000
90.15391 870.000
90.25441 817.000
90.35492 799.000
90.45543 839.000
90.55593 809.000
90.65644 779.000
90.75695 723.000
90.85745 739.000
90.95796 815.000
91.05847 737.000
91.15897 766.000
91.25948 786.000
91.35999 730.000
91.46049 747.000
91.56100 733.000
91.66151 747.000
91.76202 730.000
91.86252 721.000
91.96303 753.000
92.06354 756.000
92.16404 729.000
92.26455 753.000
92.36506 772.000
92.46556 728.000
92.56607 781.000
92.66658 758.000
92.76708 787.000
92.86759 743.000
92.96810 836.000
93.06860 848.000
93.16911 780.000
93.26962 839.000
93.37013 883.000
93.47063 878.000
93.57114 913.000
93.67165 883.000
93.77215 943.000
93.87266 979.000
93.97317 997.000
94.07367 1035.000
94.17418 995.000
94.27469 1047.000
94.37519 1058.000
94.47570 1111.000
94.57621 1069.000
94.67671 1226.000
94.77722 1212.000
94.87773 1161.000
94.97824 1227.000
95.07874 1157.000
95.17925 1150.000
95.27976 1210.000
95.38026 1237.000
95.48077 1216.000
95.58128 1129.000
95.68178 1117.000
95.78229 1155.000
95.88280 1141.000
95.98330 1064.000
96.08381 1013.000
96.18432 1025.000
96.28482 984.000
96.38533 962.000
96.48584 978.000
96.58635 909.000
96.68685 922.000
96.78736 859.000
96.88787 868.000
96.98837 789.000
97.08888 776.000
97.18939 760.000
97.28989 771.000
97.39040 807.000
97.49091 730.000
97.59141 700.000
97.69192 735.000
97.79243 723.000
97.89294 685.000
97.99344 658.000
98.09395 706.000
98.19446 652.000
98.29496 640.000
98.39547 669.000
98.49598 665.000
98.59648 615.000
98.69699 637.000
98.79750 599.000
98.89800 569.000
98.99851 599.000
99.09902 599.000
99.19952 615.000
99.30003 581.000
99.40054 590.000
99.50105 584.000
99.60155 606.000
99.70206 654.000
99.80257 600.000
99.90307 572.000
100.00358 594.000
100.10409 584.000
100.20459 576.000
100.30510 545.000
100.40561 564.000
100.50611 600.000
100.60662 559.000
100.70713 543.000
100.80763 610.000
100.90814 602.000
101.00865 615.000
101.10916 618.000
101.20966 613.000
101.31017 612.000
101.41068 567.000
101.51118 621.000
101.61169 581.000
101.71220 586.000
101.81270 596.000
101.91321 571.000
102.01372 611.000
102.11422 623.000
102.21473 551.000
102.31524 561.000
102.41574 617.000
102.51625 613.000
102.61676 576.000
102.71727 596.000
102.81777 584.000
102.91828 601.000
103.01879 621.000
103.11929 637.000
103.21980 597.000
103.32031 586.000
103.42081 591.000
103.52132 667.000
103.62183 624.000
103.72233 665.000
103.82284 614.000
103.92335 627.000
104.02386 629.000
104.12436 672.000
104.22487 588.000
104.32538 643.000
104.42588 680.000
104.52639 666.000
104.62690 684.000
104.72740 635.000
104.82791 673.000
104.92842 693.000
105.02892 700.000
105.12943 639.000
105.22994 715.000
105.33044 721.000
105.43095 716.000
105.53146 744.000
105.63197 712.000
105.73247 735.000
105.83298 752.000
105.93349 790.000
106.03399 783.000
106.13450 731.000
106.23501 814.000
106.33551 766.000
106.43602 816.000
106.53653 848.000
106.63703 796.000
106.73754 838.000
106.83805 881.000
106.93855 828.000
107.03906 825.000
107.13957 839.000
107.24008 776.000
107.34058 810.000
107.44109 815.000
107.54160 819.000
107.64210 814.000
107.74261 795.000
107.84312 819.000
107.94362 757.000
108.04413 761.000
108.14464 828.000
108.24514 809.000
108.34565 777.000
108.44616 777.000
108.54666 754.000
108.64717 768.000
108.74768 804.000
108.84819 717.000
108.94869 698.000
109.04920 757.000
109.14971 760.000
109.25021 759.000
109.35072 764.000
109.45123 728.000
109.55173 766.000
109.65224 735.000
109.75275 763.000
109.85325 774.000
109.95376 789.000
110.05427 770.000
110.15477 816.000
110.25528 775.000
110.35579 729.000
110.45630 834.000
110.55680 807.000
110.65731 811.000
110.75782 794.000
110.85832 772.000
110.95883 806.000
111.05934 836.000
111.15984 781.000
111.26035 814.000
111.36086 837.000
111.46136 843.000
111.56187 872.000
111.66238 965.000
111.76289 877.000
111.86339 945.000
111.96390 943.000
112.06441 938.000
112.16491 964.000
112.26542 968.000
112.36593 1047.000
112.46643 1003.000
112.56694 1019.000
112.66745 1067.000
112.76795 1021.000
112.86846 1035.000
112.96897 1151.000
113.06947 1130.000
113.16998 1229.000
113.27049 1130.000
113.37100 1150.000
113.47150 1186.000
113.57201 1158.000
113.67252 1268.000
113.77302 1281.000
113.87353 1319.000
113.97404 1258.000
114.07454 1304.000
114.17505 1273.000
114.27556 1351.000
114.37606 1366.000
114.47657 1299.000
114.57708 1325.000
114.67758 1339.000
114.77809 1338.000
114.87860 1364.000
114.97911 1326.000
115.07961 1326.000
115.18012 1357.000
115.28063 1249.000
115.38113 1358.000
115.48164 1281.000
115.58215 1307.000
115.68265 1249.000
115.78316 1264.000
115.88367 1266.000
115.98417 1268.000
116.08468 1229.000
116.18519 1252.000
116.28569 1200.000
116.38620 1209.000
116.48671 1139.000
116.58722 1194.000
116.68772 1214.000
116.78823 1185.000
116.88874 1177.000
116.98924 1119.000
117.08975 1104.000
117.19026 1123.000
117.29076 1073.000
117.39127 1058.000
117.49178 1112.000
117.59228 1030.000
117.69279 1063.000
117.79330 1108.000
117.89381 1047.000
117.99431 1016.000
118.09482 1015.000
118.19533 974.000
118.29583 954.000
118.39634 968.000
118.49685 990.000
118.59735 945.000
118.69786 934.000
118.79837 888.000
118.89887 871.000
118.99938 889.000
119.09989 888.000
119.20039 840.000
119.30090 866.000
119.40141 817.000
119.50192 866.000
119.60242 806.000
119.70293 829.000
119.80344 798.000
119.90394 809.000
120.00445 778.000
120.10496 806.000
120.20546 803.000
120.30597 765.000
120.40648 741.000
120.50698 796.000
120.60749 759.000
120.70800 736.000
120.80850 773.000
120.90901 739.000
121.00952 800.000
121.11003 791.000
121.21053 688.000
121.31104 716.000
121.41155 720.000
121.51205 736.000
121.61256 728.000
121.71307 756.000
121.81357 813.000
121.91408 724.000
122.01459 726.000
122.11509 734.000
122.21560 753.000
122.31611 743.000
122.41661 757.000
122.51712 745.000
122.61763 697.000
122.71814 755.000
122.81864 752.000
122.91915 723.000
123.01966 717.000
