20.00010 8184.000
20.10061 8113.000
20.20111 7733.000
20.30162 8573.000
20.40213 11770.000
20.50263 15197.000
20.60314 17314.000
20.70365 17000.000
20.80416 16531.000
20.90466 15914.000
21.00517 15201.000
21.10568 14682.000
21.20618 14218.000
21.30669 13907.000
21.40720 13331.000
21.50770 13130.000
21.60821 12682.000
21.70872 11950.000
21.80922 11672.000
21.90973 11144.000
22.01024 10651.000
22.11074 10169.000
22.21125 9817.000
22.31176 9438.000
22.41227 8958.000
22.51277 8747.000
22.61328 8763.000
22.71379 8844.000
22.81429 8518.000
22.91480 8622.000
23.01531 8635.000
23.11581 8718.000
23.21632 8565.000
23.31683 8767.000
23.41733 8621.000
23.51784 8546.000
23.61835 8449.000
23.71885 8605.000
23.81936 8373.000
23.91987 8343.000
24.02038 8486.000
24.12088 8237.000
24.22139 8150.000
24.32190 8274.000
24.42240 8194.000
24.52291 8090.000
24.62342 7885.000
24.72392 7777.000
24.82443 7533.000
24.92494 7417.000
25.02544 7283.000
25.12595 7135.000
25.22646 7075.000
25.32696 7048.000
25.42747 7042.000
25.52798 6890.000
25.62849 6816.000
25.72899 6881.000
25.82950 6529.000
25.93001 6622.000
26.03051 6362.000
26.13102 6456.000
26.23153 6362.000
26.33203 6534.000
26.43254 6344.000
26.53305 6559.000
26.63355 6598.000
26.73406 6482.000
26.83457 6623.000
26.93507 6742.000
27.03558 6915.000
27.13609 7060.000
27.23660 7089.000
27.33710 7531.000
27.43761 7849.000
27.53812 8183.000
27.63862 8836.000
27.73913 9454.000
27.83964 10289.000
27.94014 11041.000
28.04065 11956.000
28.14116 13067.000
28.24166 14381.000
28.34217 15078.000
28.44268 15812.000
28.54319 16318.000
28.64369 15804.000
28.74420 15005.000
28.84471 13873.000
28.94521 12697.000
29.04572 11216.000
29.14623 10131.000
29.24673 8924.000
29.34724 8362.000
29.44775 7627.000
29.54825 7052.000
29.64876 6550.000
29.74927 6204.000
29.84977 5862.000
29.95028 5523.000
30.05079 5472.000
30.15130 5114.000
30.25180 4796.000
30.35231 4605.000
30.45282 4274.000
30.55332 3900.000
30.65383 3736.000
30.75434 3436.000
30.85484 3013.000
30.95535 2799.000
31.05586 2695.000
31.15636 2726.000
31.25687 2649.000
31.35738 2602.000
31.45788 2571.000
31.55839 2647.000
31.65890 2556.000
31.75941 2644.000
31.85991 2735.000
31.96042 2833.000
32.06093 2847.000
32.16143 2961.000
32.26194 3280.000
32.36245 3519.000
32.46295 3788.000
32.56346 4056.000
32.66397 4423.000
32.76447 4819.000
32.86498 5226.000
32.96549 5392.000
33.06599 5471.000
33.16650 5509.000
33.26701 5040.000
33.36752 4695.000
33.46802 4291.000
33.56853 3907.000
33.66904 3812.000
33.76954 3787.000
33.87005 3671.000
33.97056 3783.000
34.07106 3764.000
34.17157 3888.000
34.27208 3905.000
34.37258 3999.000
34.47309 4091.000
34.57360 3962.000
34.67411 4000.000
34.77461 3739.000
34.87512 3627.000
34.97563 3553.000
35.07613 3605.000
35.17664 3439.000
35.27715 3479.000
35.37765 3393.000
35.47816 3343.000
35.57867 3351.000
35.67917 3068.000
35.77968 3168.000
35.88019 3067.000
35.98069 3072.000
36.08120 2964.000
36.18171 2883.000
36.28222 2834.000
36.38272 2727.000
36.48323 2740.000
36.58374 2770.000
36.68424 2644.000
36.78475 2655.000
36.88526 2641.000
36.98576 2654.000
37.08627 2567.000
37.18678 2594.000
37.28728 2617.000
37.38779 2533.000
37.48830 2562.000
37.58880 2594.000
37.68931 2548.000
37.78982 2465.000
37.89033 2437.000
37.99083 2490.000
38.09134 2533.000
38.19185 2433.000
38.29235 2412.000
38.39286 2341.000
38.49337 2391.000
38.59387 2463.000
38.69438 2400.000
38.79489 2298.000
38.89539 2199.000
38.99590 2102.000
39.09641 2084.000
39.19691 1971.000
39.29742 1814.000
39.39793 1774.000
39.49844 1580.000
39.59894 1516.000
39.69945 1468.000
39.79996 1310.000
39.90046 1289.000
40.00097 1256.000
40.10148 1212.000
40.20198 1182.000
40.30249 1171.000
40.40300 1121.000
40.50350 1093.000
40.60401 1147.000
40.70452 1075.000
40.80502 1050.000
40.90553 1036.000
41.00604 1070.000
41.10655 1041.000
41.20705 1012.000
41.30756 1096.000
41.40807 1001.000
41.50857 1035.000
41.60908 1052.000
41.70959 1049.000
41.81009 1079.000
41.91060 1049.000
42.01111 1075.000
42.11161 1069.000
42.21212 1103.000
42.31263 1048.000
42.41314 1032.000
42.51364 1062.000
42.61415 1018.000
42.71466 1045.000
42.81516 1033.000
42.91567 1089.000
43.01618 1046.000
43.11668 1079.000
43.21719 1072.000
43.31770 1057.000
43.41820 1024.000
43.51871 1038.000
43.61922 1075.000
43.71972 1025.000
43.82023 1083.000
43.92074 1125.000
44.02125 1033.000
44.12175 1093.000
44.22226 1110.000
44.32277 1105.000
44.42327 1143.000
44.52378 1142.000
44.62429 1124.000
44.72479 1170.000
44.82530 1184.000
44.92581 1224.000
45.02631 1269.000
45.12682 1353.000
45.22733 1385.000
45.32783 1413.000
45.42834 1479.000
45.52885 1605.000
45.62936 1678.000
45.72986 1713.000
45.83037 1873.000
45.93088 1978.000
46.03138 2063.000
46.13189 2291.000
46.23240 2429.000
46.33290 2705.000
46.43341 2895.000
46.53392 3262.000
46.63442 3402.000
46.73493 3735.000
46.83544 4282.000
46.93594 4684.000
47.03645 4825.000
47.13696 5196.000
47.23747 5410.000
47.33797 5406.000
47.43848 5450.000
47.53899 5406.000
47.63949 5282.000
47.74000 4900.000
47.84051 4549.000
47.94101 4181.000
48.04152 3962.000
48.14203 3523.000
48.24253 3175.000
48.34304 2931.000
48.44355 2618.000
48.54406 2378.000
48.64456 2209.000
48.74507 2014.000
48.84558 1880.000
48.94608 1775.000
49.04659 1551.000
49.14710 1617.000
49.24760 1467.000
49.34811 1529.000
49.44862 1403.000
49.54912 1345.000
49.64963 1277.000
49.75014 1269.000
49.85064 1146.000
49.95115 1214.000
50.05166 1227.000
50.15217 1098.000
50.25267 1115.000
50.35318 1131.000
50.45369 1106.000
50.55419 1101.000
50.65470 1069.000
50.75521 1083.000
50.85571 1070.000
50.95622 1090.000
51.05673 1043.000
51.15723 1005.000
51.25774 966.000
51.35825 946.000
51.45875 927.000
51.55926 919.000
51.65977 975.000
51.76028 1001.000
51.86078 967.000
51.96129 1002.000
52.06180 1046.000
52.16230 1030.000
52.26281 1016.000
52.36332 978.000
52.46382 1021.000
52.56433 1038.000
52.66484 1024.000
52.76534 1041.000
52.86585 1024.000
52.96636 1064.000
53.06686 1121.000
53.16737 1047.000
53.26788 1101.000
53.36839 1062.000
53.46889 1095.000
53.56940 1100.000
53.66991 1221.000
53.77041 1268.000
53.87092 1229.000
53.97143 1340.000
54.07193 1289.000
54.17244 1332.000
54.27295 1366.000
54.37345 1466.000
54.47396 1547.000
54.57447 1544.000
54.67497 1606.000
54.77548 1716.000
54.87599 1789.000
54.97650 2000.000
55.07700 2110.000
55.17751 2269.000
55.27802 2490.000
55.37852 2653.000
55.47903 2991.000
55.57954 3053.000
55.68004 3373.000
55.78055 3565.000
55.88106 3739.000
55.98156 4005.000
56.08207 4081.000
56.18258 4084.000
56.28309 4255.000
56.38359 4087.000
56.48410 3952.000
56.58461 3759.000
56.68511 3571.000
56.78562 3223.000
56.88613 3019.000
56.98663 2794.000
57.08714 2617.000
57.18765 2388.000
57.28815 2162.000
57.38866 2098.000
57.48917 1895.000
57.58967 1895.000
57.69018 1739.000
57.79069 1705.000
57.89120 1626.000
57.99170 1581.000
58.09221 1599.000
58.19272 1479.000
58.29322 1479.000
58.39373 1501.000
58.49424 1454.000
58.59474 1431.000
58.69525 1457.000
58.79576 1388.000
58.89626 1418.000
58.99677 1408.000
59.09728 1341.000
59.19778 1341.000
59.29829 1242.000
59.39880 1224.000
59.49931 1306.000
59.59981 1160.000
59.70032 1190.000
59.80083 1149.000
59.90133 1116.000
60.00184 1092.000
60.10235 1029.000
60.20285 1017.000
60.30336 968.000
60.40387 937.000
60.50437 854.000
60.60488 957.000
60.70539 828.000
60.80589 854.000
60.90640 871.000
61.00691 893.000
61.10742 806.000
61.20792 813.000
61.30843 792.000
61.40894 874.000
61.50944 845.000
61.60995 811.000
61.71046 758.000
61.81096 792.000
61.91147 775.000
62.01198 721.000
62.11248 781.000
62.21299 781.000
62.31350 726.000
62.41401 785.000
62.51451 750.000
62.61502 734.000
62.71553 716.000
62.81603 717.000
62.91654 736.000
63.01705 759.000
63.11755 705.000
63.21806 701.000
63.31857 715.000
63.41907 692.000
63.51958 655.000
63.62009 681.000
63.72059 668.000
63.82110 694.000
63.92161 689.000
64.02212 677.000
64.12262 661.000
64.22313 678.000
64.32364 656.000
64.42414 717.000
64.52465 714.000
64.62516 707.000
64.72566 682.000
64.82617 662.000
64.92668 642.000
65.02718 689.000
65.12769 655.000
65.22820 663.000
65.32870 648.000
65.42921 713.000
65.52972 722.000
65.63023 725.000
65.73073 656.000
65.83124 699.000
65.93175 701.000
66.03225 692.000
66.13276 729.000
66.23327 704.000
66.33377 737.000
66.43428 732.000
66.53479 730.000
66.63529 711.000
66.73580 707.000
66.83631 708.000
66.93681 674.000
67.03732 722.000
67.13783 688.000
67.23834 733.000
67.33884 770.000
67.43935 793.000
67.53986 763.000
67.64036 830.000
67.74087 761.000
67.84138 806.000
67.94188 889.000
68.04239 882.000
68.14290 923.000
68.24340 934.000
68.34391 929.000
68.44442 1016.000
68.54492 1106.000
68.64543 1055.000
68.74594 1103.000
68.84645 1199.000
68.94695 1272.000
69.04746 1239.000
69.14797 1284.000
69.24847 1312.000
69.34898 1276.000
69.44949 1298.000
69.54999 1208.000
69.65050 1207.000
69.75101 1072.000
69.85151 1107.000
69.95202 1061.000
70.05253 1025.000
70.15304 882.000
70.25354 838.000
70.35405 913.000
70.45456 758.000
70.55506 791.000
70.65557 748.000
70.75608 840.000
70.85658 732.000
70.95709 701.000
71.05760 756.000
71.15810 715.000
71.25861 720.000
71.35912 696.000
71.45962 682.000
71.56013 683.000
71.66064 663.000
71.76115 709.000
71.86165 642.000
71.96216 652.000
72.06267 678.000
72.16317 683.000
72.26368 693.000
72.36419 662.000
72.46469 671.000
72.56520 658.000
72.66571 755.000
72.76621 688.000
72.86672 660.000
72.96723 691.000
73.06773 738.000
73.16824 772.000
73.26875 722.000
73.36926 755.000
73.46976 726.000
73.57027 744.000
73.67078 757.000
73.77128 759.000
73.87179 751.000
73.97230 788.000
74.07280 809.000
74.17331 837.000
74.27382 836.000
74.37432 861.000
74.47483 896.000
74.57534 881.000
74.67584 921.000
74.77635 935.000
74.87686 886.000
74.97737 1036.000
75.07787 1065.000
75.17838 1059.000
75.27889 1154.000
75.37939 1138.000
75.47990 1255.000
75.58041 1288.000
75.68091 1348.000
75.78142 1308.000
75.88193 1399.000
75.98243 1419.000
76.08294 1483.000
76.18345 1523.000
76.28396 1565.000
76.38446 1542.000
76.48497 1624.000
76.58548 1556.000
76.68598 1563.000
76.78649 1614.000
76.88700 1591.000
76.98750 1581.000
77.08801 1544.000
77.18852 1535.000
77.28902 1496.000
77.38953 1521.000
77.49004 1451.000
77.59054 1500.000
77.69105 1408.000
77.79156 1394.000
77.89207 1423.000
77.99257 1420.000
78.09308 1371.000
78.19359 1396.000
78.29409 1371.000
78.39460 1446.000
78.49511 1336.000
78.59561 1418.000
78.69612 1415.000
78.79663 1336.000
78.89713 1398.000
78.99764 1373.000
79.09815 1333.000
79.19865 1321.000
79.29916 1290.000
79.39967 1194.000
79.50018 1185.000
79.60068 1119.000
79.70119 1123.000
79.80170 1116.000
79.90220 1058.000
80.00271 986.000
80.10322 990.000
80.20372 972.000
80.30423 853.000
80.40474 845.000
80.50524 894.000
80.60575 885.000
80.70626 837.000
80.80676 852.000
80.90727 834.000
81.00778 778.000
81.10829 738.000
81.20879 675.000
81.30930 727.000
81.40981 731.000
81.51031 710.000
81.61082 718.000
81.71133 757.000
81.81183 747.000
81.91234 721.000
82.01285 717.000
82.11335 684.000
82.21386 703.000
82.31437 702.000
82.41487 651.000
82.51538 664.000
82.61589 734.000
82.71640 662.000
82.81690 646.000
82.91741 660.000
83.01792 645.000
83.11842 671.000
83.21893 709.000
83.31944 677.000
83.41994 712.000
83.52045 627.000
83.62096 632.000
83.72146 643.000
83.82197 670.000
83.92248 648.000
84.02299 666.000
84.12349 683.000
84.22400 666.000
84.32451 712.000
84.42501 737.000
84.52552 641.000
84.62603 709.000
84.72653 723.000
84.82704 684.000
84.92755 717.000
85.02805 685.000
85.12856 719.000
85.22907 697.000
85.32957 700.000
85.43008 758.000
85.53059 772.000
85.63110 711.000
85.73160 806.000
85.83211 762.000
85.93262 840.000
86.03312 793.000
86.13363 823.000
86.23414 891.000
86.33464 889.000
86.43515 857.000
86.53566 909.000
86.63616 960.000
86.73667 943.000
86.83718 955.000
86.93768 1012.000
87.03819 1012.000
87.13870 1067.000
87.23921 1046.000
87.33971 1150.000
87.44022 1086.000
87.54073 1203.000
87.64123 1266.000
87.74174 1215.000
87.84225 1223.000
87.94275 1299.000
88.04326 1291.000
88.14377 1267.000
88.24427 1337.000
88.34478 1224.000
88.44529 1232.000
88.54579 1265.000
88.64630 1189.000
88.74681 1228.000
88.84732 1120.000
88.94782 1185.000
89.04833 1084.000
89.14884 1101.000
89.24934 1063.000
89.34985 1018.000
89.45036 937.000
89.55086 972.000
89.65137 912.000
89.75188 931.000
89.85238 915.000
89.95289 895.000
90.05340 867.000
90.15391 862.000
90.25441 818.000
90.35492 790.000
90.45543 783.000
90.55593 755.000
90.65644 765.000
90.75695 740.000
90.85745 746.000
90.95796 774.000
91.05847 769.000
91.15897 744.000
91.25948 760.000
91.35999 762.000
91.46049 739.000
91.56100 783.000
91.66151 705.000
91.76202 801.000
91.86252 757.000
91.96303 725.000
92.06354 713.000
92.16404 736.000
92.26455 782.000
92.36506 780.000
92.46556 787.000
92.56607 811.000
92.66658 782.000
92.76708 758.000
92.86759 754.000
92.96810 840.000
93.06860 805.000
93.16911 867.000
93.26962 832.000
93.37013 916.000
93.47063 890.000
93.57114 898.000
93.67165 967.000
93.77215 923.000
93.87266 982.000
93.97317 993.000
94.07367 1075.000
94.17418 1024.000
94.27469 1031.000
94.37519 1130.000
94.47570 1104.000
94.57621 1144.000
94.67671 1166.000
94.77722 1082.000
94.87773 1218.000
94.97824 1224.000
95.07874 1189.000
95.17925 1311.000
95.27976 1197.000
95.38026 1201.000
95.48077 1150.000
95.58128 1205.000
95.68178 1163.000
95.78229 1086.000
95.88280 1110.000
95.98330 1146.000
96.08381 973.000
96.18432 1025.000
96.28482 960.000
96.38533 854.000
96.48584 908.000
96.58635 842.000
96.68685 877.000
96.78736 823.000
96.88787 755.000
96.98837 761.000
97.08888 818.000
97.18939 820.000
97.28989 787.000
97.39040 719.000
97.49091 771.000
97.59141 718.000
97.69192 708.000
97.79243 745.000
97.89294 687.000
97.99344 662.000
98.09395 628.000
98.19446 708.000
98.29496 667.000
98.39547 653.000
98.49598 646.000
98.59648 678.000
98.69699 592.000
98.79750 668.000
98.89800 649.000
98.99851 587.000
99.09902 626.000
99.19952 590.000
99.30003 635.000
99.40054 606.000
99.50105 591.000
99.60155 598.000
99.70206 586.000
99.80257 617.000
99.90307 604.000
100.00358 587.000
100.10409 656.000
100.20459 576.000
100.30510 570.000
100.40561 600.000
100.50611 627.000
100.60662 587.000
100.70713 575.000
100.80763 583.000
100.90814 603.000
101.00865 572.000
101.10916 623.000
101.20966 606.000
101.31017 585.000
101.41068 591.000
101.51118 607.000
101.61169 572.000
101.71220 590.000
101.81270 587.000
101.91321 606.000
102.01372 553.000
102.11422 619.000
102.21473 584.000
102.31524 575.000
102.41574 565.000
102.51625 578.000
102.61676 613.000
102.71727 663.000
102.81777 612.000
102.91828 607.000
103.01879 577.000
103.11929 649.000
103.21980 615.000
103.32031 620.000
103.42081 630.000
103.52132 639.000
103.62183 619.000
103.72233 667.000
103.82284 662.000
103.92335 645.000
104.02386 626.000
104.12436 631.000
104.22487 628.000
104.32538 659.000
104.42588 680.000
104.52639 644.000
104.62690 686.000
104.72740 696.000
104.82791 682.000
104.92842 712.000
105.02892 689.000
105.12943 710.000
105.22994 719.000
105.33044 739.000
105.43095 732.000
105.53146 697.000
105.63197 741.000
105.73247 715.000
105.83298 738.000
105.93349 783.000
106.03399 775.000
106.13450 770.000
106.23501 805.000
106.33551 829.000
106.43602 804.000
106.53653 774.000
106.63703 787.000
106.73754 843.000
106.83805 853.000
106.93855 834.000
107.03906 823.000
107.13957 847.000
107.24008 761.000
107.34058 840.000
107.44109 850.000
107.54160 844.000
107.64210 807.000
107.74261 778.000
107.84312 784.000
107.94362 793.000
108.04413 779.000
108.14464 766.000
108.24514 782.000
108.34565 738.000
108.44616 800.000
108.54666 767.000
108.64717 779.000
108.74768 898.000
108.84819 723.000
108.94869 707.000
109.04920 747.000
109.14971 779.000
109.25021 759.000
109.35072 787.000
109.45123 749.000
109.55173 751.000
109.65224 747.000
109.75275 807.000
109.85325 802.000
109.95376 831.000
110.05427 788.000
110.15477 797.000
110.25528 767.000
110.35579 793.000
110.45630 811.000
110.55680 778.000
110.65731 832.000
110.75782 802.000
110.85832 825.000
110.95883 789.000
111.05934 780.000
111.15984 798.000
111.26035 821.000
111.36086 778.000
111.46136 888.000
111.56187 849.000
111.66238 886.000
111.76289 907.000
111.86339 907.000
111.96390 943.000
112.06441 921.000
112.16491 1012.000
112.26542 1048.000
112.36593 966.000
112.46643 1068.000
112.56694 1038.000
112.66745 1049.000
112.76795 1091.000
112.86846 1091.000
112.96897 1139.000
113.06947 1161.000
113.16998 1192.000
113.27049 1168.000
113.37100 1170.000
113.47150 1179.000
113.57201 1216.000
113.67252 1181.000
113.77302 1229.000
113.87353 1250.000
113.97404 1263.000
114.07454 1250.000
114.17505 1334.000
114.27556 1200.000
114.37606 1284.000
114.47657 1294.000
114.57708 1362.000
114.67758 1345.000
114.77809 1386.000
114.87860 1303.000
114.97911 1311.000
115.07961 1261.000
115.18012 1315.000
115.28063 1275.000
115.38113 1309.000
115.48164 1241.000
115.58215 1225.000
115.68265 1229.000
115.78316 1214.000
115.88367 1206.000
115.98417 1249.000
116.08468 1244.000
116.18519 1234.000
116.28569 1199.000
116.38620 1201.000
116.48671 1192.000
116.58722 1224.000
116.68772 1111.000
116.78823 1155.000
116.88874 1167.000
116.98924 1080.000
117.08975 1109.000
117.19026 1143.000
117.29076 1057.000
117.39127 1074.000
117.49178 1066.000
117.59228 1097.000
117.69279 1015.000
117.79330 1107.000
117.89381 982.000
117.99431 951.000
118.09482 1013.000
118.19533 1008.000
118.29583 952.000
118.39634 908.000
118.49685 983.000
118.59735 883.000
118.69786 936.000
118.79837 908.000
118.89887 891.000
118.99938 890.000
119.09989 930.000
119.20039 904.000
119.30090 866.000
119.40141 841.000
119.50192 882.000
119.60242 860.000
119.70293 872.000
119.80344 862.000
119.90394 790.000
120.00445 817.000
120.10496 811.000
120.20546 748.000
120.30597 788.000
120.40648 793.000
120.50698 765.000
120.60749 760.000
120.70800 724.000
120.80850 815.000
120.90901 772.000
121.00952 799.000
121.11003 784.000
121.21053 830.000
121.31104 746.000
121.41155 739.000
121.51205 767.000
121.61256 751.000
121.71307 687.000
121.81357 736.000
121.91408 738.000
122.01459 696.000
122.11509 795.000
122.21560 736.000
122.31611 784.000
122.41661 759.000
122.51712 744.000
122.61763 752.000
122.71814 785.000
122.81864 770.000
122.91915 728.000
123.01966 782.000
