1.042175312E+00  2.921975899E+01
1.062328839E+00  2.871403503E+01
1.082482366E+00  2.899078369E+01
1.102635892E+00  2.918568039E+01
1.122789419E+00  3.018178558E+01
1.142942946E+00  3.151723289E+01
1.163096472E+00  3.453557205E+01
1.183249999E+00  3.730974197E+01
1.203403526E+00  4.028746033E+01
1.223557053E+00  4.685720062E+01
1.243710579E+00  5.430039978E+01
1.263864106E+00  1.217317886E+02
1.284017633E+00  2.100089264E+02
1.304171160E+00  3.930142822E+02
1.324324686E+00  6.205592651E+02
1.344478213E+00  8.696184692E+02
1.364631740E+00  1.080311523E+03
1.384785267E+00  1.278671753E+03
1.404938793E+00  1.421483032E+03
1.425092320E+00  1.502396729E+03
1.445245847E+00  1.544389282E+03
1.465399373E+00  1.583865967E+03
1.485552900E+00  1.620879150E+03
1.505706427E+00  1.649581421E+03
1.525859954E+00  1.677173950E+03
1.546013480E+00  1.695088257E+03
1.566167007E+00  1.719087524E+03
1.586320534E+00  1.741814331E+03
1.606474061E+00  1.757449463E+03
1.626627587E+00  1.776580444E+03
1.646781114E+00  1.782769165E+03
1.666934641E+00  1.797795532E+03
1.687088168E+00  1.804503906E+03
1.707241694E+00  1.810768799E+03
1.727395221E+00  1.824565796E+03
1.747548748E+00  1.822759155E+03
1.767702274E+00  1.828869507E+03
1.787855801E+00  1.833875610E+03
1.808009328E+00  1.847515869E+03
1.828162855E+00  1.870373901E+03
1.848316381E+00  1.885088623E+03
1.868469908E+00  1.909444702E+03
1.888623435E+00  1.925801025E+03
1.908776962E+00  1.948651978E+03
1.928930488E+00  1.970153320E+03
1.949084015E+00  1.983635864E+03
1.969237542E+00  1.992754028E+03
1.989391069E+00  2.002468994E+03
2.009544595E+00  2.011385376E+03
2.029698122E+00  2.014627441E+03
2.049851649E+00  2.021214600E+03
2.070005175E+00  2.030036743E+03
2.090158702E+00  2.037009033E+03
2.110312229E+00  2.047027954E+03
2.130465756E+00  2.051762939E+03
2.150619282E+00  2.064190186E+03
2.170772809E+00  2.070029785E+03
2.190926336E+00  2.076482178E+03
2.211079863E+00  2.084594482E+03
2.231233389E+00  2.085224365E+03
2.251386916E+00  2.098295410E+03
2.271540443E+00  2.104979004E+03
2.291693970E+00  2.113299561E+03
2.311847496E+00  2.124191650E+03
2.332001023E+00  2.121684814E+03
2.352154550E+00  2.127622070E+03
2.372308076E+00  2.124785156E+03
2.392461603E+00  2.134707275E+03
2.412615130E+00  2.143930664E+03
2.432768657E+00  2.149933594E+03
2.452922183E+00  2.160857178E+03
2.473075710E+00  2.160843994E+03
2.493229237E+00  2.163124023E+03
2.513382764E+00  2.167019287E+03
2.533536290E+00  2.170373047E+03
2.553689817E+00  2.179508789E+03
2.573843344E+00  2.179141602E+03
2.593996871E+00  2.181004639E+03
2.614150397E+00  2.187093750E+03
2.634303924E+00  2.193010742E+03
2.654457451E+00  2.197425293E+03
2.674610977E+00  2.196255615E+03
2.694764504E+00  2.198447021E+03
2.714918031E+00  2.199652100E+03
2.735071558E+00  2.206249512E+03
2.755225084E+00  2.201550537E+03
2.775378611E+00  2.204339355E+03
2.795532138E+00  2.206337158E+03
2.815685665E+00  2.208811035E+03
2.835839191E+00  2.214163574E+03
2.855992718E+00  2.209246094E+03
2.876146245E+00  2.213334229E+03
2.896299772E+00  2.216086914E+03
2.916453298E+00  2.217893799E+03
2.936606825E+00  2.219315918E+03
2.956760352E+00  2.215166260E+03
2.976913879E+00  2.218981445E+03
2.997067405E+00  2.217843018E+03
3.017220932E+00  2.216635498E+03
3.037374459E+00  2.221584961E+03
3.057527985E+00  2.224100342E+03
3.077681512E+00  2.229873291E+03
3.097835039E+00  2.232585938E+03
3.117988566E+00  2.233061768E+03
3.138142092E+00  2.235628662E+03
3.158295619E+00  2.233396729E+03
3.178449146E+00  2.231647217E+03
3.198602673E+00  2.232732422E+03
3.218756199E+00  2.233310059E+03
3.238909726E+00  2.232823486E+03
3.259063253E+00  2.229245605E+03
3.279216780E+00  2.228734375E+03
3.299370306E+00  2.230620117E+03
3.319523833E+00  2.236823486E+03
3.339677360E+00  2.239006104E+03
3.359830886E+00  2.235981934E+03
3.379984413E+00  2.230062988E+03
3.400137940E+00  2.230118408E+03
3.420291467E+00  2.230364258E+03
3.440444993E+00  2.228118652E+03
3.460598520E+00  2.227034912E+03
3.480752047E+00  2.226835938E+03
3.500905574E+00  2.227921631E+03
3.521059100E+00  2.231917236E+03
3.541212627E+00  2.228520264E+03
3.561366154E+00  2.231932617E+03
3.581519681E+00  2.231853271E+03
3.601673207E+00  2.233444092E+03
3.621826734E+00  2.238912598E+03
3.641980261E+00  2.235123535E+03
3.662133787E+00  2.237964111E+03
3.682287314E+00  2.236132568E+03
3.702440841E+00  2.235394531E+03
3.722594368E+00  2.236492432E+03
3.742747894E+00  2.233260498E+03
3.762901421E+00  2.235154541E+03
3.783054948E+00  2.232291504E+03
3.803208475E+00  2.232378662E+03
3.823362001E+00  2.233104492E+03
3.843515528E+00  2.231643555E+03
3.863669055E+00  2.230474121E+03
3.883822582E+00  2.225468506E+03
3.903976108E+00  2.223685059E+03
3.924129635E+00  2.225298096E+03
3.944283162E+00  2.224926514E+03
3.964436688E+00  2.227435791E+03
3.984590215E+00  2.229483643E+03
4.004743742E+00  2.229836914E+03
4.024897269E+00  2.229883789E+03
4.045050795E+00  2.230505615E+03
4.065204322E+00  2.229842041E+03
4.085357849E+00  2.230793701E+03
4.105511376E+00  2.230440186E+03
4.125664902E+00  2.229523193E+03
4.145818429E+00  2.229161621E+03
4.165971956E+00  2.226701660E+03
4.186125483E+00  2.232390625E+03
4.206279009E+00  2.231649658E+03
4.226432536E+00  2.229854736E+03
4.246586063E+00  2.229215576E+03
4.266739589E+00  2.227441406E+03
4.286893116E+00  2.230167236E+03
4.307046643E+00  2.228500977E+03
4.327200170E+00  2.226945068E+03
4.347353696E+00  2.228435791E+03
4.367507223E+00  2.230507812E+03
4.387660750E+00  2.232730957E+03
4.407814277E+00  2.240743164E+03
4.427967803E+00  2.245822754E+03
4.448121330E+00  2.250459961E+03
4.468274857E+00  2.242834229E+03
4.488428384E+00  2.240891602E+03
4.508581910E+00  2.238048584E+03
4.528735437E+00  2.237675293E+03
4.548888964E+00  2.234808838E+03
4.569042490E+00  2.234071289E+03
4.589196017E+00  2.231337646E+03
4.609349544E+00  2.230673340E+03
4.629503071E+00  2.229235352E+03
4.649656597E+00  2.229811035E+03
4.669810124E+00  2.228967773E+03
4.689963651E+00  2.226219482E+03
4.710117178E+00  2.229300537E+03
4.730270704E+00  2.228619873E+03
4.750424231E+00  2.231847900E+03
4.770577758E+00  2.231676758E+03
4.790731285E+00  2.230933594E+03
4.810884811E+00  2.231430176E+03
4.831038338E+00  2.229586670E+03
4.851191865E+00  2.228735352E+03
4.871345391E+00  2.226856689E+03
4.891498918E+00  2.226928223E+03
4.911652445E+00  2.228499756E+03
4.931805972E+00  2.230292725E+03
4.951959498E+00  2.225296631E+03
4.972113025E+00  2.227475098E+03
4.992266552E+00  2.227974854E+03
5.012420079E+00  2.232638672E+03
5.032573605E+00  2.239790039E+03
5.052727132E+00  2.247158203E+03
5.072880659E+00  2.249068115E+03
5.093034186E+00  2.242437012E+03
5.113187712E+00  2.237768066E+03
5.133341239E+00  2.238409180E+03
5.153494766E+00  2.236184570E+03
5.173648293E+00  2.237015869E+03
5.193801819E+00  2.235133789E+03
5.213955346E+00  2.233469238E+03
5.234108873E+00  2.236138184E+03
5.254262399E+00  2.230309326E+03
5.274415926E+00  2.236535889E+03
5.294569453E+00  2.249042480E+03
5.314722980E+00  2.261207031E+03
5.334876506E+00  2.264051025E+03
5.355030033E+00  2.260391357E+03
5.375183560E+00  2.259141113E+03
5.395337087E+00  2.257745850E+03
5.415490613E+00  2.257780762E+03
5.435644140E+00  2.256084473E+03
5.455797667E+00  2.256817383E+03
5.475951194E+00  2.262843262E+03
5.496104720E+00  2.268146973E+03
5.516258247E+00  2.268302979E+03
5.536411774E+00  2.264778809E+03
5.556565300E+00  2.260450684E+03
5.576718827E+00  2.255111572E+03
5.596872354E+00  2.254815674E+03
5.617025881E+00  2.253205322E+03
5.637179407E+00  2.252663330E+03
5.657332934E+00  2.250630615E+03
5.677486461E+00  2.249947998E+03
5.697639988E+00  2.253374512E+03
5.717793514E+00  2.252253906E+03
5.737947041E+00  2.251793213E+03
5.758100568E+00  2.252395264E+03
5.778254095E+00  2.251456055E+03
5.798407621E+00  2.254372070E+03
5.818561148E+00  2.255993896E+03
5.838714675E+00  2.264555908E+03
5.858868201E+00  2.280252197E+03
5.879021728E+00  2.324741943E+03
5.899175255E+00  2.425894775E+03
5.919328782E+00  2.596601807E+03
5.939482308E+00  2.630838867E+03
5.959635835E+00  2.574752686E+03
5.979789362E+00  2.476198242E+03
5.999942889E+00  2.391498047E+03
6.020096415E+00  2.308754395E+03
6.040249942E+00  2.294788818E+03
6.060403469E+00  2.285919678E+03
6.080556996E+00  2.284279541E+03
6.100710522E+00  2.284423340E+03
6.120864049E+00  2.285279541E+03
6.141017576E+00  2.281881104E+03
6.161171102E+00  2.281989746E+03
6.181324629E+00  2.278919922E+03
6.201478156E+00  2.276574951E+03
6.221631683E+00  2.275477539E+03
6.241785209E+00  2.275601074E+03
6.261938736E+00  2.276229248E+03
6.282092263E+00  2.278224609E+03
6.302245790E+00  2.277458252E+03
6.322399316E+00  2.277820068E+03
6.342552843E+00  2.274931396E+03
6.362706370E+00  2.275481445E+03
6.382859897E+00  2.276602539E+03
6.403013423E+00  2.277776367E+03
6.423166950E+00  2.280364990E+03
6.443320477E+00  2.282548340E+03
6.463474003E+00  2.283240967E+03
6.483627530E+00  2.286040527E+03
6.503781057E+00  2.284771240E+03
6.523934584E+00  2.285858643E+03
6.544088110E+00  2.284489258E+03
6.564241637E+00  2.284085205E+03
6.584395164E+00  2.284986816E+03
6.604548691E+00  2.283997559E+03
6.624702217E+00  2.286006592E+03
6.644855744E+00  2.285986328E+03
6.665009271E+00  2.287468262E+03
6.685162798E+00  2.286966797E+03
6.705316324E+00  2.289137939E+03
6.725469851E+00  2.290038330E+03
6.745623378E+00  2.294489990E+03
6.765776904E+00  2.296077881E+03
6.785930431E+00  2.297198975E+03
6.806083958E+00  2.295431152E+03
6.826237485E+00  2.295243652E+03
6.846391011E+00  2.295562744E+03
6.866544538E+00  2.295982422E+03
6.886698065E+00  2.296649414E+03
6.906851592E+00  2.297643555E+03
6.927005118E+00  2.298694092E+03
6.947158645E+00  2.300054199E+03
6.967312172E+00  2.301126953E+03
6.987465699E+00  2.302607422E+03
7.007619225E+00  2.305448242E+03
7.027772752E+00  2.306153320E+03
7.047926279E+00  2.308118896E+03
7.068079805E+00  2.306466309E+03
7.088233332E+00  2.307563477E+03
7.108386859E+00  2.308964600E+03
7.128540386E+00  2.309743164E+03
7.148693912E+00  2.310286377E+03
7.168847439E+00  2.310719727E+03
7.189000966E+00  2.312105225E+03
7.209154493E+00  2.313069824E+03
7.229308019E+00  2.314150146E+03
7.249461546E+00  2.315784668E+03
7.269615073E+00  2.317711426E+03
7.289768600E+00  2.317801758E+03
7.309922126E+00  2.318949707E+03
7.330075653E+00  2.318123047E+03
7.350229180E+00  2.321041260E+03
7.370382706E+00  2.323564697E+03
7.390536233E+00  2.325478027E+03
7.410689760E+00  2.327473145E+03
7.430843287E+00  2.327365234E+03
7.450996813E+00  2.327975586E+03
7.471150340E+00  2.328174805E+03
7.491303867E+00  2.327990967E+03
7.511457394E+00  2.329522217E+03
7.531610920E+00  2.331637939E+03
7.551764447E+00  2.332450928E+03
7.571917974E+00  2.334566895E+03
7.592071501E+00  2.335056641E+03
7.612225027E+00  2.338019531E+03
7.632378554E+00  2.341995117E+03
7.652532081E+00  2.344668701E+03
7.672685608E+00  2.347231689E+03
7.692839134E+00  2.345523682E+03
7.712992661E+00  2.345675537E+03
7.733146188E+00  2.345683350E+03
7.753299714E+00  2.345059082E+03
7.773453241E+00  2.344917236E+03
7.793606768E+00  2.346359863E+03
7.813760295E+00  2.349099121E+03
7.833913821E+00  2.352334473E+03
7.854067348E+00  2.350214111E+03
7.874220875E+00  2.349354980E+03
7.894374402E+00  2.349275635E+03
7.914527928E+00  2.352916260E+03
7.934681455E+00  2.358040771E+03
7.954834982E+00  2.359724609E+03
7.974988509E+00  2.360521973E+03
7.995142035E+00  2.360492920E+03
8.015295562E+00  2.361641357E+03
8.035449089E+00  2.363792480E+03
8.055602615E+00  2.365180420E+03
8.075756142E+00  2.369509766E+03
8.095909669E+00  2.372483154E+03
8.116063196E+00  2.372599609E+03
8.136216722E+00  2.371739746E+03
8.156370249E+00  2.372604492E+03
8.176523776E+00  2.375648193E+03
8.196677303E+00  2.378220215E+03
8.216830829E+00  2.378068359E+03
8.236984356E+00  2.379997070E+03
8.257137883E+00  2.382588135E+03
8.277291410E+00  2.386597412E+03
8.297444936E+00  2.390383789E+03
8.317598463E+00  2.403218506E+03
8.337751990E+00  2.439630127E+03
8.357905516E+00  2.533189941E+03
8.378059043E+00  2.640231445E+03
8.398212570E+00  2.734850586E+03
8.418366097E+00  2.728204346E+03
8.438519623E+00  2.636074219E+03
8.458673150E+00  2.510549072E+03
8.478826677E+00  2.437376465E+03
8.498980204E+00  2.410428955E+03
8.519133730E+00  2.403291016E+03
8.539287257E+00  2.402949219E+03
8.559440784E+00  2.402145752E+03
8.579594311E+00  2.403175049E+03
8.599747837E+00  2.406197266E+03
8.619901364E+00  2.408910156E+03
8.640054891E+00  2.410941650E+03
8.660208417E+00  2.411585693E+03
8.680361944E+00  2.411774414E+03
8.700515471E+00  2.415044922E+03
8.720668998E+00  2.416542480E+03
8.740822524E+00  2.418946289E+03
8.760976051E+00  2.421357910E+03
8.781129578E+00  2.421642334E+03
8.801283105E+00  2.424224121E+03
8.821436631E+00  2.428512939E+03
8.841590158E+00  2.433905029E+03
8.861743685E+00  2.441124268E+03
8.881897212E+00  2.450058594E+03
8.902050738E+00  2.467122559E+03
8.922204265E+00  2.498130127E+03
8.942357792E+00  2.566482910E+03
8.962511318E+00  2.734475830E+03
8.982664845E+00  3.114565186E+03
9.002818372E+00  3.668394775E+03
9.022971899E+00  4.171015137E+03
9.043125425E+00  4.296050293E+03
9.063278952E+00  3.986244873E+03
9.083432479E+00  3.415997314E+03
9.103586006E+00  2.934618896E+03
9.123739532E+00  2.662772461E+03
9.143893059E+00  2.547173340E+03
9.164046586E+00  2.503067627E+03
9.184200113E+00  2.483972900E+03
9.204353639E+00  2.473624023E+03
9.224507166E+00  2.467336182E+03
9.244660693E+00  2.462567627E+03
9.264814219E+00  2.463274902E+03
9.284967746E+00  2.464470703E+03
9.305121273E+00  2.464107910E+03
9.325274800E+00  2.463009033E+03
9.345428326E+00  2.462339355E+03
9.365581853E+00  2.465051025E+03
9.385735380E+00  2.468103516E+03
9.405888907E+00  2.469085205E+03
9.426042433E+00  2.469573486E+03
9.446195960E+00  2.470862549E+03
9.466349487E+00  2.474216797E+03
9.486503014E+00  2.475581787E+03
9.506656540E+00  2.475755615E+03
9.526810067E+00  2.475541016E+03
9.546963594E+00  2.474802002E+03
9.567117120E+00  2.474708008E+03
9.587270647E+00  2.474932617E+03
9.607424174E+00  2.476222900E+03
9.627577701E+00  2.480200195E+03
9.647731227E+00  2.482115967E+03
9.667884754E+00  2.482695068E+03
9.688038281E+00  2.483874512E+03
9.708191808E+00  2.482889893E+03
9.728345334E+00  2.483645264E+03
9.748498861E+00  2.484209473E+03
9.768652388E+00  2.488724854E+03
9.788805915E+00  2.493930664E+03
9.808959441E+00  2.496293457E+03
9.829112968E+00  2.500048828E+03
9.849266495E+00  2.501867188E+03
9.869420022E+00  2.508347656E+03
9.889573548E+00  2.519573730E+03
9.909727075E+00  2.532264404E+03
9.929880602E+00  2.540874268E+03
9.950034128E+00  2.544198486E+03
9.970187655E+00  2.542260986E+03
9.990341182E+00  2.538784912E+03
1.001049471E+01  2.535140381E+03
1.003064824E+01  2.535018311E+03
1.005080176E+01  2.538084961E+03
1.007095529E+01  2.544130371E+03
1.009110882E+01  2.554923584E+03
1.011126234E+01  2.565910645E+03
1.013141587E+01  2.584391602E+03
1.015156940E+01  2.609759277E+03
1.017172292E+01  2.652027100E+03
1.019187645E+01  2.729890869E+03
1.021202998E+01  2.918604980E+03
1.023218350E+01  3.413545166E+03
1.025233703E+01  4.302184082E+03
1.027249056E+01  5.584967773E+03
1.029264408E+01  6.532780762E+03
1.031279761E+01  6.522363770E+03
1.033295114E+01  5.478650391E+03
1.035310466E+01  4.254551270E+03
1.037325819E+01  3.426820557E+03
1.039341172E+01  3.024771240E+03
1.041356524E+01  2.855565674E+03
1.043371877E+01  2.778911865E+03
1.045387230E+01  2.734064697E+03
1.047402582E+01  2.712641357E+03
1.049417935E+01  2.701714844E+03
1.051433288E+01  2.692705322E+03
1.053448640E+01  2.687983887E+03
1.055463993E+01  2.685377930E+03
1.057479346E+01  2.691462402E+03
1.059494698E+01  2.713599609E+03
1.061510051E+01  2.753399658E+03
1.063525404E+01  2.826928223E+03
1.065540756E+01  2.910408936E+03
1.067556109E+01  3.060812500E+03
1.069571462E+01  3.214986572E+03
1.071586814E+01  3.357382324E+03
1.073602167E+01  3.642445557E+03
1.075617520E+01  4.079508301E+03
1.077632872E+01  4.994321289E+03
1.079648225E+01  6.351128418E+03
1.081663578E+01  7.224723145E+03
1.083678930E+01  7.176668945E+03
1.085694283E+01  5.923072754E+03
1.087709636E+01  4.547981934E+03
1.089724988E+01  3.445549072E+03
1.091740341E+01  2.926825684E+03
1.093755694E+01  2.704776123E+03
1.095771047E+01  2.655143311E+03
1.097786399E+01  2.634674072E+03
1.099801752E+01  2.629018311E+03
1.101817105E+01  2.624235352E+03
1.103832457E+01  2.620309814E+03
1.105847810E+01  2.617482422E+03
1.107863163E+01  2.613582275E+03
1.109878515E+01  2.612775635E+03
1.111893868E+01  2.610294922E+03
1.113909221E+01  2.612306641E+03
1.115924573E+01  2.614170898E+03
1.117939926E+01  2.617114502E+03
1.119955279E+01  2.621023926E+03
1.121970631E+01  2.627100830E+03
1.123985984E+01  2.633277100E+03
1.126001337E+01  2.637931641E+03
1.128016689E+01  2.645244629E+03
1.130032042E+01  2.656624268E+03
1.132047395E+01  2.678108643E+03
1.134062747E+01  2.704752441E+03
1.136078100E+01  2.759469971E+03
1.138093453E+01  2.875022705E+03
1.140108805E+01  3.157946289E+03
1.142124158E+01  3.796513428E+03
1.144139511E+01  4.793529297E+03
1.146154863E+01  6.137352539E+03
1.148170216E+01  6.980479004E+03
1.150185569E+01  6.581494629E+03
1.152200921E+01  5.282813477E+03
1.154216274E+01  4.097151367E+03
1.156231627E+01  3.291828369E+03
1.158246979E+01  2.937574707E+03
1.160262332E+01  2.805051514E+03
1.162277685E+01  2.746145752E+03
1.164293037E+01  2.721180176E+03
1.166308390E+01  2.706202148E+03
1.168323743E+01  2.701774170E+03
1.170339095E+01  2.703213623E+03
1.172354448E+01  2.713160400E+03
1.174369801E+01  2.727400391E+03
1.176385153E+01  2.756035645E+03
1.178400506E+01  2.804107178E+03
1.180415859E+01  2.903064941E+03
1.182431211E+01  3.111916504E+03
1.184446564E+01  3.382938477E+03
1.186461917E+01  3.793873535E+03
1.188477269E+01  4.019038330E+03
1.190492622E+01  4.144373047E+03
1.192507975E+01  4.010706787E+03
1.194523328E+01  3.727690674E+03
1.196538680E+01  3.202229004E+03
1.198554033E+01  2.990668213E+03
1.200569386E+01  2.852448730E+03
1.202584738E+01  2.783739746E+03
1.204600091E+01  2.750258545E+03
1.206615444E+01  2.729354492E+03
1.208630796E+01  2.717959961E+03
1.210646149E+01  2.706556885E+03
1.212661502E+01  2.701359863E+03
1.214676854E+01  2.699328613E+03
1.216692207E+01  2.701093018E+03
1.218707560E+01  2.702443359E+03
1.220722912E+01  2.706498291E+03
1.222738265E+01  2.711741699E+03
1.224753618E+01  2.720970215E+03
1.226768970E+01  2.733233887E+03
1.228784323E+01  2.756517090E+03
1.230799676E+01  2.780153320E+03
1.232815028E+01  2.813829102E+03
1.234830381E+01  2.869099121E+03
1.236845734E+01  2.960922119E+03
1.238861086E+01  3.106298584E+03
1.240876439E+01  3.342978516E+03
1.242891792E+01  3.810060059E+03
1.244907144E+01  4.626682129E+03
1.246922497E+01  5.502729980E+03
1.248937850E+01  6.245500977E+03
1.250953202E+01  6.138360352E+03
1.252968555E+01  5.261024414E+03
1.254983908E+01  4.165687500E+03
1.256999260E+01  3.435795654E+03
1.259014613E+01  3.000385010E+03
1.261029966E+01  2.832164795E+03
1.263045318E+01  2.772549316E+03
1.265060671E+01  2.751142334E+03
1.267076024E+01  2.743052002E+03
1.269091376E+01  2.742864258E+03
1.271106729E+01  2.752239990E+03
1.273122082E+01  2.772664062E+03
1.275137434E+01  2.796815430E+03
1.277152787E+01  2.821313965E+03
1.279168140E+01  2.833574463E+03
1.281183492E+01  2.830491211E+03
1.283198845E+01  2.808404785E+03
1.285214198E+01  2.783681152E+03
1.287229550E+01  2.757831543E+03
1.289244903E+01  2.741160156E+03
1.291260256E+01  2.733286865E+03
1.293275609E+01  2.726936279E+03
1.295290961E+01  2.726822510E+03
1.297306314E+01  2.722958496E+03
1.299321667E+01  2.725635498E+03
1.301337019E+01  2.723673096E+03
1.303352372E+01  2.723068359E+03
1.305367725E+01  2.720372559E+03
1.307383077E+01  2.719434814E+03
1.309398430E+01  2.720430420E+03
1.311413783E+01  2.721367676E+03
1.313429135E+01  2.721308838E+03
1.315444488E+01  2.722303223E+03
1.317459841E+01  2.724615234E+03
1.319475193E+01  2.730653076E+03
1.321490546E+01  2.743141113E+03
1.323505899E+01  2.768740723E+03
1.325521251E+01  2.812607910E+03
1.327536604E+01  2.868990723E+03
1.329551957E+01  2.922935303E+03
1.331567309E+01  2.938232666E+03
1.333582662E+01  2.906049805E+03
1.335598015E+01  2.848048828E+03
1.337613367E+01  2.788663574E+03
1.339628720E+01  2.758955566E+03
1.341644073E+01  2.744643799E+03
1.343659425E+01  2.736584473E+03
1.345674778E+01  2.734263672E+03
1.347690131E+01  2.733609619E+03
1.349705483E+01  2.735659424E+03
1.351720836E+01  2.736363770E+03
1.353736189E+01  2.737783203E+03
1.355751541E+01  2.738352051E+03
1.357766894E+01  2.738011475E+03
1.359782247E+01  2.737947510E+03
1.361797599E+01  2.739316650E+03
1.363812952E+01  2.740961914E+03
1.365828305E+01  2.742801758E+03
1.367843657E+01  2.744150391E+03
1.369859010E+01  2.744445312E+03
1.371874363E+01  2.745209473E+03
1.373889715E+01  2.745187256E+03
1.375905068E+01  2.745248535E+03
1.377920421E+01  2.746171387E+03
1.379935773E+01  2.747472900E+03
1.381951126E+01  2.749111084E+03
1.383966479E+01  2.750728027E+03
1.385981831E+01  2.750801758E+03
1.387997184E+01  2.750807617E+03
1.390012537E+01  2.750206787E+03
1.392027890E+01  2.752364990E+03
1.394043242E+01  2.755279053E+03
1.396058595E+01  2.756726807E+03
1.398073948E+01  2.758068848E+03
1.400089300E+01  2.759143311E+03
1.402104653E+01  2.759275635E+03
1.404120006E+01  2.759685303E+03
1.406135358E+01  2.761489990E+03
1.408150711E+01  2.761263916E+03
1.410166064E+01  2.759539795E+03
1.412181416E+01  2.760007080E+03
1.414196769E+01  2.763104980E+03
1.416212122E+01  2.768120117E+03
1.418227474E+01  2.769088135E+03
1.420242827E+01  2.770637939E+03
1.422258180E+01  2.775120361E+03
1.424273532E+01  2.779592285E+03
1.426288885E+01  2.786114502E+03
1.428304238E+01  2.792131592E+03
1.430319590E+01  2.797394531E+03
1.432334943E+01  2.800767090E+03
1.434350296E+01  2.800155273E+03
1.436365648E+01  2.800254395E+03
1.438381001E+01  2.795919922E+03
1.440396354E+01  2.794625244E+03
1.442411706E+01  2.792390137E+03
1.444427059E+01  2.799191895E+03
1.446442412E+01  2.805217773E+03
1.448457764E+01  2.818914307E+03
1.450473117E+01  2.840532959E+03
1.452488470E+01  2.872933350E+03
1.454503822E+01  2.914260498E+03
1.456519175E+01  2.953838867E+03
1.458534528E+01  2.972442383E+03
1.460549880E+01  2.952097656E+03
1.462565233E+01  2.911846680E+03
1.464580586E+01  2.868122314E+03
1.466595938E+01  2.839831787E+03
1.468611291E+01  2.821530029E+03
1.470626644E+01  2.816753174E+03
1.472641996E+01  2.814631348E+03
1.474657349E+01  2.815386475E+03
1.476672702E+01  2.815508057E+03
1.478688054E+01  2.816758301E+03
1.480703407E+01  2.818363037E+03
1.482718760E+01  2.818983154E+03
1.484734112E+01  2.819908447E+03
1.486749465E+01  2.820335449E+03
1.488764818E+01  2.820713867E+03
1.490780170E+01  2.821509033E+03
1.492795523E+01  2.823916260E+03
1.494810876E+01  2.824953125E+03
1.496826229E+01  2.825399414E+03
1.498841581E+01  2.826261719E+03
1.500856934E+01  2.831871826E+03
1.502872287E+01  2.842048340E+03
1.504887639E+01  2.849673584E+03
1.506902992E+01  2.847839600E+03
1.508918345E+01  2.849372559E+03
1.510933697E+01  2.849970947E+03
1.512949050E+01  2.850279297E+03
1.514964403E+01  2.848250000E+03
1.516979755E+01  2.845865234E+03
1.518995108E+01  2.844684814E+03
1.521010461E+01  2.845416992E+03
1.523025813E+01  2.846633545E+03
1.525041166E+01  2.846599609E+03
1.527056519E+01  2.846959473E+03
1.529071871E+01  2.850782471E+03
1.531087224E+01  2.862951904E+03
1.533102577E+01  2.871331055E+03
1.535117929E+01  2.873248291E+03
1.537133282E+01  2.872085938E+03
1.539148635E+01  2.873291748E+03
1.541163987E+01  2.873702148E+03
1.543179340E+01  2.877219971E+03
1.545194693E+01  2.877544189E+03
1.547210045E+01  2.877644531E+03
1.549225398E+01  2.880020020E+03
1.551240751E+01  2.882574707E+03
1.553256103E+01  2.890943115E+03
1.555271456E+01  2.903156738E+03
1.557286809E+01  2.925178955E+03
1.559302161E+01  2.961654785E+03
1.561317514E+01  3.020056396E+03
1.563332867E+01  3.109529785E+03
1.565348219E+01  3.207155273E+03
1.567363572E+01  3.287362549E+03
1.569378925E+01  3.304939453E+03
1.571394277E+01  3.248791260E+03
1.573409630E+01  3.153844238E+03
1.575424983E+01  3.061133545E+03
1.577440335E+01  2.994598633E+03
1.579455688E+01  2.955813232E+03
1.581471041E+01  2.935594238E+03
1.583486393E+01  2.934824219E+03
1.585501746E+01  2.935859131E+03
1.587517099E+01  2.933051514E+03
1.589532451E+01  2.923934570E+03
1.591547804E+01  2.917976318E+03
1.593563157E+01  2.913996094E+03
1.595578510E+01  2.913761475E+03
1.597593862E+01  2.914349854E+03
1.599609215E+01  2.913880127E+03
1.601624568E+01  2.915725342E+03
1.603639920E+01  2.918550049E+03
1.605655273E+01  2.921651855E+03
1.607670626E+01  2.924941406E+03
1.609685978E+01  2.932905029E+03
1.611701331E+01  2.946712646E+03
1.613716684E+01  2.969034668E+03
1.615732036E+01  3.010153564E+03
1.617747389E+01  3.093524170E+03
1.619762742E+01  3.234625732E+03
1.621778094E+01  3.450806396E+03
1.623793447E+01  3.692260498E+03
1.625808800E+01  3.847314453E+03
1.627824152E+01  3.847734131E+03
1.629839505E+01  3.697941162E+03
1.631854858E+01  3.462046631E+03
1.633870210E+01  3.247686523E+03
1.635885563E+01  3.104427490E+03
1.637900916E+01  3.020336426E+03
1.639916268E+01  2.981181396E+03
1.641931621E+01  2.960981445E+03
1.643946974E+01  2.951616943E+03
1.645962326E+01  2.946711182E+03
1.647977679E+01  2.941756836E+03
1.649993032E+01  2.938826904E+03
1.652008384E+01  2.938033691E+03
1.654023737E+01  2.939907959E+03
1.656039090E+01  2.942336182E+03
1.658054442E+01  2.944205078E+03
1.660069795E+01  2.945267334E+03
1.662085148E+01  2.947280762E+03
1.664100500E+01  2.952791504E+03
1.666115853E+01  2.961565674E+03
1.668131206E+01  2.972969727E+03
1.670146558E+01  2.985537109E+03
1.672161911E+01  3.008885986E+03
1.674177264E+01  3.052743408E+03
1.676192616E+01  3.146241211E+03
1.678207969E+01  3.327747314E+03
1.680223322E+01  3.600780762E+03
1.682238674E+01  3.921250000E+03
1.684254027E+01  4.327085449E+03
1.686269380E+01  4.336136230E+03
1.688284732E+01  4.080097168E+03
1.690300085E+01  3.756699707E+03
1.692315438E+01  3.437557861E+03
1.694330791E+01  3.195274414E+03
1.696346143E+01  3.099356934E+03
1.698361496E+01  3.039966064E+03
1.700376849E+01  3.011386230E+03
1.702392201E+01  2.993460693E+03
1.704407554E+01  2.981717773E+03
1.706422907E+01  2.977345215E+03
1.708438259E+01  2.976255615E+03
1.710453612E+01  2.973926758E+03
1.712468965E+01  2.969450439E+03
1.714484317E+01  2.967901367E+03
1.716499670E+01  2.967225586E+03
1.718515023E+01  2.968430908E+03
1.720530375E+01  2.966117188E+03
1.722545728E+01  2.966692139E+03
1.724561081E+01  2.966865723E+03
1.726576433E+01  2.969811523E+03
1.728591786E+01  2.970864746E+03
1.730607139E+01  2.971926270E+03
1.732622491E+01  2.972980225E+03
1.734637844E+01  2.974358643E+03
1.736653197E+01  2.977054199E+03
1.738668549E+01  2.981298828E+03
1.740683902E+01  2.986554443E+03
1.742699255E+01  2.993081543E+03
1.744714607E+01  3.005693359E+03
1.746729960E+01  3.016163818E+03
1.748745313E+01  3.029527100E+03
1.750760665E+01  3.043125977E+03
1.752776018E+01  3.064022949E+03
1.754791371E+01  3.083681152E+03
1.756806723E+01  3.111012207E+03
1.758822076E+01  3.140663818E+03
1.760837429E+01  3.187752441E+03
1.762852781E+01  3.256820801E+03
1.764868134E+01  3.395303955E+03
1.766883487E+01  3.568288818E+03
1.768898839E+01  3.786813721E+03
1.770914192E+01  3.935406006E+03
1.772929545E+01  3.942007324E+03
1.774944897E+01  3.771694580E+03
1.776960250E+01  3.520339600E+03
1.778975603E+01  3.296636475E+03
1.780990955E+01  3.160339111E+03
1.783006308E+01  3.106498047E+03
1.785021661E+01  3.098098145E+03
1.787037013E+01  3.105986328E+03
1.789052366E+01  3.106136230E+03
1.791067719E+01  3.094550781E+03
1.793083072E+01  3.071573242E+03
1.795098424E+01  3.049595703E+03
1.797113777E+01  3.033933838E+03
1.799129130E+01  3.027513184E+03
1.801144482E+01  3.026710938E+03
1.803159835E+01  3.031851074E+03
1.805175188E+01  3.047868408E+03
1.807190540E+01  3.075079834E+03
1.809205893E+01  3.113440186E+03
1.811221246E+01  3.152864258E+03
1.813236598E+01  3.169998779E+03
1.815251951E+01  3.156723633E+03
1.817267304E+01  3.122973877E+03
1.819282656E+01  3.086141357E+03
1.821298009E+01  3.062403564E+03
1.823313362E+01  3.047329346E+03
1.825328714E+01  3.040319092E+03
1.827344067E+01  3.035563965E+03
1.829359420E+01  3.030382080E+03
1.831374772E+01  3.030140137E+03
1.833390125E+01  3.031163574E+03
1.835405478E+01  3.030932129E+03
1.837420830E+01  3.032443848E+03
1.839436183E+01  3.033556641E+03
1.841451536E+01  3.034395996E+03
1.843466888E+01  3.033366943E+03
1.845482241E+01  3.032243408E+03
1.847497594E+01  3.032873291E+03
1.849512946E+01  3.032932617E+03
1.851528299E+01  3.034233398E+03
1.853543652E+01  3.032039307E+03
1.855559004E+01  3.032803955E+03
1.857574357E+01  3.032561768E+03
1.859589710E+01  3.036407959E+03
1.861605062E+01  3.039589111E+03
1.863620415E+01  3.042035645E+03
1.865635768E+01  3.043343750E+03
1.867651120E+01  3.045520264E+03
1.869666473E+01  3.048621094E+03
1.871681826E+01  3.053091309E+03
1.873697178E+01  3.060427246E+03
1.875712531E+01  3.076465576E+03
1.877727884E+01  3.099145264E+03
1.879743236E+01  3.123383545E+03
1.881758589E+01  3.140819336E+03
1.883773942E+01  3.147380371E+03
1.885789294E+01  3.144207275E+03
1.887804647E+01  3.128048828E+03
1.889820000E+01  3.111621094E+03
1.891835353E+01  3.092756836E+03
1.893850705E+01  3.082035645E+03
1.895866058E+01  3.073523193E+03
1.897881411E+01  3.073511719E+03
1.899896763E+01  3.078207275E+03
1.901912116E+01  3.092720459E+03
1.903927469E+01  3.116345703E+03
1.905942821E+01  3.147066895E+03
1.907958174E+01  3.173796875E+03
1.909973527E+01  3.182833496E+03
1.911988879E+01  3.171020264E+03
1.914004232E+01  3.144304688E+03
1.916019585E+01  3.113375000E+03
1.918034937E+01  3.091132812E+03
1.920050290E+01  3.075339355E+03
1.922065643E+01  3.068491699E+03
1.924080995E+01  3.063222412E+03
1.926096348E+01  3.061489258E+03
1.928111701E+01  3.061106934E+03
1.930127053E+01  3.059200684E+03
1.932142406E+01  3.057760254E+03
1.934157759E+01  3.056760254E+03
1.936173111E+01  3.059906982E+03
1.938188464E+01  3.061504639E+03
1.940203817E+01  3.064801514E+03
1.942219169E+01  3.067899170E+03
1.944234522E+01  3.070266602E+03
1.946249875E+01  3.070859863E+03
1.948265227E+01  3.072147705E+03
1.950280580E+01  3.077523193E+03
1.952295933E+01  3.084094971E+03
1.954311285E+01  3.088300781E+03
1.956326638E+01  3.094407227E+03
1.958341991E+01  3.102773438E+03
1.960357343E+01  3.117083496E+03
1.962372696E+01  3.133321777E+03
1.964388049E+01  3.161995117E+03
1.966403401E+01  3.208606445E+03
1.968418754E+01  3.293458984E+03
1.970434107E+01  3.427911133E+03
1.972449459E+01  3.630640869E+03
1.974464812E+01  3.873731201E+03
1.976480165E+01  4.158103027E+03
1.978495517E+01  4.348046875E+03
1.980510870E+01  4.388858887E+03
1.982526223E+01  4.233367676E+03
1.984541575E+01  3.978476562E+03
1.986556928E+01  3.683500244E+03
1.988572281E+01  3.490514160E+03
1.990587633E+01  3.363975830E+03
1.992602986E+01  3.298111084E+03
1.994618339E+01  3.264512939E+03
1.996633692E+01  3.234995361E+03
1.998649044E+01  3.205063232E+03
2.000664397E+01  3.176275391E+03
2.002679750E+01  3.154771240E+03
2.004695102E+01  3.137128418E+03
2.006710455E+01  3.126791260E+03
2.008725808E+01  3.119744141E+03
2.010741160E+01  3.120826416E+03
2.012756513E+01  3.123244385E+03
2.014771866E+01  3.128058838E+03
2.016787218E+01  3.135644531E+03
2.018802571E+01  3.149416016E+03
2.020817924E+01  3.169795654E+03
2.022833276E+01  3.194781494E+03
2.024848629E+01  3.215901367E+03
2.026863982E+01  3.230506592E+03
2.028879334E+01  3.231508789E+03
2.030894687E+01  3.221288818E+03
2.032910040E+01  3.202364990E+03
2.034925392E+01  3.183426025E+03
2.036940745E+01  3.164546875E+03
2.038956098E+01  3.152562012E+03
2.040971450E+01  3.144517822E+03
2.042986803E+01  3.143188477E+03
2.045002156E+01  3.143378662E+03
2.047017508E+01  3.148030029E+03
2.049032861E+01  3.156780029E+03
2.051048214E+01  3.170057373E+03
2.053063566E+01  3.187522949E+03
2.055078919E+01  3.209453125E+03
2.057094272E+01  3.245113037E+03
2.059109624E+01  3.299314941E+03
2.061124977E+01  3.383957275E+03
2.063140330E+01  3.489843262E+03
2.065155682E+01  3.613468994E+03
2.067171035E+01  3.710777588E+03
2.069186388E+01  3.800224609E+03
2.071201740E+01  3.882907959E+03
2.073217093E+01  4.061620361E+03
2.075232446E+01  4.371772949E+03
2.077247798E+01  4.769296387E+03
2.079263151E+01  5.098765137E+03
2.081278504E+01  5.168195801E+03
2.083293856E+01  4.945158691E+03
2.085309209E+01  4.515041992E+03
2.087324562E+01  4.009947510E+03
2.089339914E+01  3.628929688E+03
2.091355267E+01  3.377699707E+03
2.093370620E+01  3.250220703E+03
2.095385973E+01  3.191471680E+03
2.097401325E+01  3.165741699E+03
2.099416678E+01  3.153519043E+03
2.101432031E+01  3.148002441E+03
2.103447383E+01  3.143300537E+03
2.105462736E+01  3.141284180E+03
2.107478089E+01  3.139375000E+03
2.109493441E+01  3.140391357E+03
2.111508794E+01  3.140424072E+03
2.113524147E+01  3.140120117E+03
2.115539499E+01  3.139870117E+03
2.117554852E+01  3.142681885E+03
2.119570205E+01  3.145725830E+03
2.121585557E+01  3.146341064E+03
2.123600910E+01  3.146218018E+03
2.125616263E+01  3.149293213E+03
2.127631615E+01  3.151248291E+03
2.129646968E+01  3.154560791E+03
2.131662321E+01  3.157746094E+03
2.133677673E+01  3.161583984E+03
2.135693026E+01  3.167177490E+03
2.137708379E+01  3.171754395E+03
2.139723731E+01  3.178479248E+03
2.141739084E+01  3.186477295E+03
2.143754437E+01  3.199267578E+03
2.145769789E+01  3.214079590E+03
2.147785142E+01  3.238598389E+03
2.149800495E+01  3.292270264E+03
2.151815847E+01  3.379803223E+03
2.153831200E+01  3.483166992E+03
2.155846553E+01  3.569445801E+03
2.157861905E+01  3.646507812E+03
2.159877258E+01  3.687866455E+03
2.161892611E+01  3.768801270E+03
2.163907963E+01  3.870874268E+03
2.165923316E+01  3.949509521E+03
2.167938669E+01  4.052239258E+03
2.169954021E+01  4.158344238E+03
2.171969374E+01  4.352972168E+03
2.173984727E+01  4.512498535E+03
2.176000079E+01  4.708759766E+03
2.178015432E+01  4.665307129E+03
2.180030785E+01  4.503120117E+03
2.182046137E+01  4.259254395E+03
2.184061490E+01  4.067321533E+03
2.186076843E+01  3.962193848E+03
2.188092195E+01  3.843640625E+03
2.190107548E+01  3.750398682E+03
2.192122901E+01  3.692357910E+03
2.194138254E+01  3.705638428E+03
2.196153606E+01  3.691412109E+03
2.198168959E+01  3.659734131E+03
2.200184312E+01  3.540027344E+03
2.202199664E+01  3.447927490E+03
2.204215017E+01  3.338818115E+03
2.206230370E+01  3.272927246E+03
2.208245722E+01  3.233233643E+03
2.210261075E+01  3.222348877E+03
2.212276428E+01  3.216468994E+03
2.214291780E+01  3.211830078E+03
2.216307133E+01  3.208201416E+03
2.218322486E+01  3.207494385E+03
2.220337838E+01  3.212011475E+03
2.222353191E+01  3.223102539E+03
2.224368544E+01  3.231313232E+03
2.226383896E+01  3.236654297E+03
2.228399249E+01  3.237447998E+03
2.230414602E+01  3.239093750E+03
2.232429954E+01  3.241772705E+03
2.234445307E+01  3.244185059E+03
2.236460660E+01  3.239946533E+03
2.238476012E+01  3.229785400E+03
2.240491365E+01  3.215046631E+03
2.242506718E+01  3.199576660E+03
2.244522070E+01  3.184107422E+03
2.246537423E+01  3.175660645E+03
2.248552776E+01  3.170857910E+03
2.250568128E+01  3.167036865E+03
2.252583481E+01  3.162891357E+03
2.254598834E+01  3.163014648E+03
2.256614186E+01  3.163357178E+03
2.258629539E+01  3.164130127E+03
2.260644892E+01  3.164328613E+03
2.262660244E+01  3.167095947E+03
2.264675597E+01  3.177344482E+03
2.266690950E+01  3.186677490E+03
2.268706302E+01  3.188215820E+03
2.270721655E+01  3.187514160E+03
2.272737008E+01  3.179309326E+03
2.274752360E+01  3.175476074E+03
2.276767713E+01  3.173306152E+03
2.278783066E+01  3.171005127E+03
2.280798418E+01  3.168790283E+03
2.282813771E+01  3.167279541E+03
2.284829124E+01  3.166523926E+03
2.286844476E+01  3.169216064E+03
2.288859829E+01  3.169607666E+03
2.290875182E+01  3.172567383E+03
2.292890535E+01  3.172054688E+03
2.294905887E+01  3.174676270E+03
2.296921240E+01  3.175752441E+03
2.298936593E+01  3.183570801E+03
2.300951945E+01  3.189994141E+03
2.302967298E+01  3.201738281E+03
2.304982651E+01  3.210538574E+03
2.306998003E+01  3.221368408E+03
2.309013356E+01  3.223457520E+03
2.311028709E+01  3.217884521E+03
2.313044061E+01  3.201091797E+03
2.315059414E+01  3.188267578E+03
2.317074767E+01  3.177033936E+03
2.319090119E+01  3.169314453E+03
2.321105472E+01  3.164246338E+03
2.323120825E+01  3.161295166E+03
2.325136177E+01  3.159020020E+03
2.327151530E+01  3.158199707E+03
2.329166883E+01  3.157980713E+03
2.331182235E+01  3.158655029E+03
2.333197588E+01  3.160789795E+03
2.335212941E+01  3.160943359E+03
2.337228293E+01  3.160519531E+03
2.339243646E+01  3.160004150E+03
2.341258999E+01  3.160526855E+03
2.343274351E+01  3.162824951E+03
2.345289704E+01  3.162560547E+03
2.347305057E+01  3.163283203E+03
2.349320409E+01  3.162557861E+03
2.351335762E+01  3.162489502E+03
2.353351115E+01  3.163051025E+03
2.355366467E+01  3.164221436E+03
2.357381820E+01  3.165187500E+03
2.359397173E+01  3.164716797E+03
2.361412525E+01  3.164032959E+03
2.363427878E+01  3.164630859E+03
2.365443231E+01  3.167478760E+03
2.367458583E+01  3.169292480E+03
2.369473936E+01  3.172035156E+03
2.371489289E+01  3.175032227E+03
2.373504641E+01  3.179912842E+03
2.375519994E+01  3.191375244E+03
2.377535347E+01  3.202668945E+03
2.379550699E+01  3.207792725E+03
2.381566052E+01  3.216631348E+03
2.383581405E+01  3.229310791E+03
2.385596757E+01  3.246095459E+03
2.387612110E+01  3.267095947E+03
2.389627463E+01  3.289385986E+03
2.391642816E+01  3.306977539E+03
2.393658168E+01  3.316037354E+03
2.395673521E+01  3.320578369E+03
2.397688874E+01  3.325947266E+03
2.399704226E+01  3.340558838E+03
2.401719579E+01  3.363734131E+03
2.403734932E+01  3.388452148E+03
2.405750284E+01  3.400170410E+03
2.407765637E+01  3.386212402E+03
2.409780990E+01  3.356953613E+03
2.411796342E+01  3.317718506E+03
2.413811695E+01  3.288481201E+03
2.415827048E+01  3.266068115E+03
2.417842400E+01  3.243208496E+03
2.419857753E+01  3.228521973E+03
2.421873106E+01  3.217225342E+03
2.423888458E+01  3.209725830E+03
2.425903811E+01  3.205343262E+03
2.427919164E+01  3.203253662E+03
2.429934516E+01  3.203584473E+03
2.431949869E+01  3.205160156E+03
2.433965222E+01  3.206702148E+03
2.435980574E+01  3.206788574E+03
2.437995927E+01  3.204900879E+03
2.440011280E+01  3.204549316E+03
2.442026632E+01  3.204420654E+03
2.444041985E+01  3.203685303E+03
2.446057338E+01  3.202527832E+03
2.448072690E+01  3.202708496E+03
2.450088043E+01  3.203510498E+03
2.452103396E+01  3.206435303E+03
2.454118748E+01  3.209710693E+03
2.456134101E+01  3.215092285E+03
2.458149454E+01  3.221678711E+03
2.460164806E+01  3.230214355E+03
2.462180159E+01  3.240516113E+03
2.464195512E+01  3.250638672E+03
2.466210864E+01  3.257782715E+03
2.468226217E+01  3.259492432E+03
2.470241570E+01  3.256377197E+03
2.472256922E+01  3.250529297E+03
2.474272275E+01  3.243666748E+03
2.476287628E+01  3.236029785E+03
2.478302980E+01  3.231404785E+03
2.480318333E+01  3.228808105E+03
2.482333686E+01  3.228953613E+03
2.484349038E+01  3.230638184E+03
2.486364391E+01  3.232024414E+03
2.488379744E+01  3.232296875E+03
2.490395097E+01  3.232494629E+03
2.492410449E+01  3.234996582E+03
2.494425802E+01  3.240485840E+03
2.496441155E+01  3.244619629E+03
2.498456507E+01  3.245293457E+03
2.500471860E+01  3.248776611E+03
2.502487213E+01  3.255274414E+03
2.504502565E+01  3.265848145E+03
2.506517918E+01  3.281185791E+03
2.508533271E+01  3.301945068E+03
2.510548623E+01  3.329842773E+03
2.512563976E+01  3.359958496E+03
2.514579329E+01  3.385679443E+03
2.516594681E+01  3.401427246E+03
2.518610034E+01  3.401970459E+03
2.520625387E+01  3.390165771E+03
2.522640739E+01  3.367182861E+03
2.524656092E+01  3.334283936E+03
2.526671445E+01  3.302364014E+03
2.528686797E+01  3.276871094E+03
2.530702150E+01  3.264774658E+03
2.532717503E+01  3.262105713E+03
2.534732855E+01  3.262818359E+03
2.536748208E+01  3.263305908E+03
2.538763561E+01  3.266397949E+03
2.540778913E+01  3.269497070E+03
2.542794266E+01  3.268411377E+03
2.544809619E+01  3.263167969E+03
2.546824971E+01  3.259570068E+03
2.548840324E+01  3.254842285E+03
2.550855677E+01  3.251146973E+03
2.552871029E+01  3.246338867E+03
2.554886382E+01  3.246224365E+03
2.556901735E+01  3.246362549E+03
2.558917087E+01  3.248847656E+03
2.560932440E+01  3.250525635E+03
2.562947793E+01  3.254276611E+03
2.564963145E+01  3.255152344E+03
2.566978498E+01  3.256987549E+03
2.568993851E+01  3.260468750E+03
2.571009203E+01  3.268796631E+03
2.573024556E+01  3.281618164E+03
2.575039909E+01  3.299568848E+03
2.577055261E+01  3.323201660E+03
2.579070614E+01  3.354792969E+03
2.581085967E+01  3.385508057E+03
2.583101319E+01  3.415983887E+03
2.585116672E+01  3.433618164E+03
2.587132025E+01  3.433352051E+03
2.589147377E+01  3.417845459E+03
2.591162730E+01  3.392469727E+03
2.593178083E+01  3.367632568E+03
2.595193436E+01  3.352648682E+03
2.597208788E+01  3.354569336E+03
2.599224141E+01  3.376804443E+03
2.601239494E+01  3.422968018E+03
2.603254846E+01  3.495540527E+03
2.605270199E+01  3.586512695E+03
2.607285552E+01  3.680638184E+03
2.609300904E+01  3.752113037E+03
2.611316257E+01  3.766449707E+03
2.613331610E+01  3.724109131E+03
2.615346962E+01  3.639571533E+03
2.617362315E+01  3.548809814E+03
2.619377668E+01  3.464489014E+03
2.621393020E+01  3.403882324E+03
2.623408373E+01  3.359341309E+03
2.625423726E+01  3.332442139E+03
2.627439078E+01  3.313854736E+03
2.629454431E+01  3.305027100E+03
2.631469784E+01  3.300232910E+03
2.633485136E+01  3.294406738E+03
2.635500489E+01  3.286429199E+03
2.637515842E+01  3.280278076E+03
2.639531194E+01  3.275145752E+03
2.641546547E+01  3.272713135E+03
2.643561900E+01  3.271790527E+03
2.645577252E+01  3.270572754E+03
2.647592605E+01  3.270334717E+03
2.649607958E+01  3.270978760E+03
2.651623310E+01  3.273693115E+03
2.653638663E+01  3.278706299E+03
2.655654016E+01  3.282775391E+03
2.657669368E+01  3.287809570E+03
2.659684721E+01  3.291953125E+03
2.661700074E+01  3.301168945E+03
2.663715426E+01  3.313592773E+03
2.665730779E+01  3.335266357E+03
2.667746132E+01  3.367224854E+03
2.669761484E+01  3.409914551E+03
2.671776837E+01  3.463736084E+03
2.673792190E+01  3.527641357E+03
2.675807542E+01  3.593892334E+03
2.677822895E+01  3.642966797E+03
2.679838248E+01  3.659555664E+03
2.681853600E+01  3.635617920E+03
2.683868953E+01  3.581593506E+03
2.685884306E+01  3.521673340E+03
2.687899658E+01  3.460097412E+03
2.689915011E+01  3.409973877E+03
2.691930364E+01  3.374661377E+03
2.693945717E+01  3.349938721E+03
2.695961069E+01  3.332334717E+03
2.697976422E+01  3.322816406E+03
2.699991775E+01  3.320615967E+03
2.702007127E+01  3.316921631E+03
2.704022480E+01  3.314247070E+03
2.706037833E+01  3.314830078E+03
2.708053185E+01  3.317006592E+03
2.710068538E+01  3.317779541E+03
2.712083891E+01  3.316847168E+03
2.714099243E+01  3.318410889E+03
2.716114596E+01  3.320424072E+03
2.718129949E+01  3.325363037E+03
2.720145301E+01  3.330617676E+03
2.722160654E+01  3.339917969E+03
2.724176007E+01  3.349594971E+03
2.726191359E+01  3.361229980E+03
2.728206712E+01  3.373923340E+03
2.730222065E+01  3.396997314E+03
2.732237417E+01  3.423309570E+03
2.734252770E+01  3.459739014E+03
2.736268123E+01  3.513101807E+03
2.738283475E+01  3.606669434E+03
2.740298828E+01  3.749234131E+03
2.742314181E+01  3.942357422E+03
2.744329533E+01  4.154529297E+03
2.746344886E+01  4.305887695E+03
2.748360239E+01  4.316724121E+03
2.750375591E+01  4.166763184E+03
2.752390944E+01  3.914640869E+03
2.754406297E+01  3.672219971E+03
2.756421649E+01  3.501935059E+03
2.758437002E+01  3.409757324E+03
2.760452355E+01  3.366922363E+03
2.762467707E+01  3.343857178E+03
2.764483060E+01  3.331512695E+03
2.766498413E+01  3.325545898E+03
2.768513765E+01  3.321599365E+03
2.770529118E+01  3.320062988E+03
2.772544471E+01  3.321163086E+03
2.774559823E+01  3.321049316E+03
2.776575176E+01  3.323974365E+03
2.778590529E+01  3.325877930E+03
2.780605881E+01  3.331499023E+03
2.782621234E+01  3.333043701E+03
2.784636587E+01  3.338348389E+03
2.786651939E+01  3.342435303E+03
2.788667292E+01  3.349633301E+03
2.790682645E+01  3.359785645E+03
2.792697998E+01  3.368123047E+03
2.794713350E+01  3.376651367E+03
2.796728703E+01  3.387468262E+03
2.798744056E+01  3.400943848E+03
2.800759408E+01  3.410870361E+03
2.802774761E+01  3.423553955E+03
2.804790114E+01  3.439478027E+03
2.806805466E+01  3.466565918E+03
2.808820819E+01  3.508226074E+03
2.810836172E+01  3.571024414E+03
2.812851524E+01  3.648663086E+03
2.814866877E+01  3.723241211E+03
2.816882230E+01  3.778632812E+03
2.818897582E+01  3.800969971E+03
2.820912935E+01  3.772286621E+03
2.822928288E+01  3.700391846E+03
2.824943640E+01  3.612997803E+03
2.826958993E+01  3.536776611E+03
2.828974346E+01  3.487694580E+03
2.830989698E+01  3.465562744E+03
2.833005051E+01  3.465396484E+03
2.835020404E+01  3.476455811E+03
2.837035756E+01  3.489693359E+03
2.839051109E+01  3.488163086E+03
2.841066462E+01  3.471019287E+03
2.843081814E+01  3.440004639E+03
2.845097167E+01  3.410113281E+03
2.847112520E+01  3.384047363E+03
2.849127872E+01  3.369735352E+03
2.851143225E+01  3.362475098E+03
2.853158578E+01  3.359087891E+03
2.855173930E+01  3.357649658E+03
2.857189283E+01  3.353568604E+03
2.859204636E+01  3.351444580E+03
2.861219988E+01  3.347840088E+03
2.863235341E+01  3.349134766E+03
2.865250694E+01  3.352992676E+03
2.867266046E+01  3.354812744E+03
2.869281399E+01  3.353093506E+03
2.871296752E+01  3.357460938E+03
2.873312104E+01  3.362649414E+03
2.875327457E+01  3.371221191E+03
2.877342810E+01  3.377025391E+03
2.879358162E+01  3.388327393E+03
2.881373515E+01  3.397938965E+03
2.883388868E+01  3.402908203E+03
2.885404220E+01  3.403477539E+03
2.887419573E+01  3.400083496E+03
2.889434926E+01  3.398546387E+03
2.891450279E+01  3.393820557E+03
2.893465631E+01  3.388778320E+03
2.895480984E+01  3.384034912E+03
2.897496337E+01  3.382952393E+03
2.899511689E+01  3.378652588E+03
2.901527042E+01  3.375564697E+03
2.903542395E+01  3.373781250E+03
2.905557747E+01  3.374206055E+03
2.907573100E+01  3.373721680E+03
2.909588453E+01  3.375669678E+03
2.911603805E+01  3.382025635E+03
2.913619158E+01  3.388870850E+03
2.915634511E+01  3.390930420E+03
2.917649863E+01  3.398868652E+03
2.919665216E+01  3.405113770E+03
2.921680569E+01  3.409457275E+03
2.923695921E+01  3.411889404E+03
2.925711274E+01  3.420038086E+03
2.927726627E+01  3.435402588E+03
2.929741979E+01  3.461095215E+03
2.931757332E+01  3.494114014E+03
2.933772685E+01  3.536579834E+03
2.935788037E+01  3.586613281E+03
2.937803390E+01  3.628811035E+03
2.939818743E+01  3.658903320E+03
2.941834095E+01  3.672599121E+03
2.943849448E+01  3.650512207E+03
2.945864801E+01  3.608243652E+03
2.947880153E+01  3.561676025E+03
2.949895506E+01  3.518239014E+03
2.951910859E+01  3.484435303E+03
2.953926211E+01  3.460795166E+03
2.955941564E+01  3.445291504E+03
2.957956917E+01  3.433783691E+03
2.959972269E+01  3.427887451E+03
2.961987622E+01  3.427693848E+03
2.964002975E+01  3.423908936E+03
2.966018327E+01  3.418210205E+03
2.968033680E+01  3.414180420E+03
2.970049033E+01  3.419006104E+03
2.972064385E+01  3.419453369E+03
2.974079738E+01  3.418199463E+03
2.976095091E+01  3.412489014E+03
2.978110443E+01  3.410454590E+03
2.980125796E+01  3.411373047E+03
2.982141149E+01  3.412410889E+03
2.984156501E+01  3.411520996E+03
2.986171854E+01  3.413211426E+03
2.988187207E+01  3.418188232E+03
2.990202560E+01  3.416777588E+03
2.992217912E+01  3.418864258E+03
2.994233265E+01  3.422333740E+03
2.996248618E+01  3.431879883E+03
2.998263970E+01  3.437166016E+03
3.000279323E+01  3.440895508E+03
3.002294676E+01  3.445218750E+03
3.004310028E+01  3.445864746E+03
3.006325381E+01  3.448250732E+03
3.008340734E+01  3.448531738E+03
3.010356086E+01  3.448477051E+03
3.012371439E+01  3.450172607E+03
3.014386792E+01  3.451661133E+03
3.016402144E+01  3.453447998E+03
3.018417497E+01  3.455531738E+03
3.020432850E+01  3.460858398E+03
3.022448202E+01  3.467882812E+03
3.024463555E+01  3.479195801E+03
3.026478908E+01  3.488597168E+03
3.028494260E+01  3.488436768E+03
3.030509613E+01  3.485680420E+03
3.032524966E+01  3.475269043E+03
3.034540318E+01  3.470928223E+03
3.036555671E+01  3.468541992E+03
3.038571024E+01  3.467333252E+03
3.040586376E+01  3.465366943E+03
3.042601729E+01  3.464528076E+03
3.044617082E+01  3.473235352E+03
3.046632434E+01  3.478971680E+03
3.048647787E+01  3.479619629E+03
3.050663140E+01  3.483109619E+03
3.052678492E+01  3.492529297E+03
3.054693845E+01  3.509647461E+03
3.056709198E+01  3.522303955E+03
3.058724550E+01  3.536472412E+03
3.060739903E+01  3.559204590E+03
3.062755256E+01  3.570684814E+03
3.064770608E+01  3.574091553E+03
3.066785961E+01  3.565305420E+03
3.068801314E+01  3.559944092E+03
3.070816666E+01  3.565166992E+03
3.072832019E+01  3.576696777E+03
3.074847372E+01  3.594186523E+03
3.076862724E+01  3.617846924E+03
3.078878077E+01  3.652053223E+03
3.080893430E+01  3.691062256E+03
3.082908782E+01  3.745306885E+03
3.084924135E+01  3.825237549E+03
3.086939488E+01  3.953548828E+03
3.088954840E+01  4.125230469E+03
3.090970193E+01  4.325309570E+03
3.092985546E+01  4.465539551E+03
3.095000899E+01  4.514194824E+03
3.097016251E+01  4.448998047E+03
3.099031604E+01  4.298803711E+03
3.101046957E+01  4.102501953E+03
3.103062309E+01  3.936887939E+03
3.105077662E+01  3.825797607E+03
3.107093015E+01  3.761437012E+03
3.109108367E+01  3.737247803E+03
3.111123720E+01  3.735717041E+03
3.113139073E+01  3.765790527E+03
3.115154425E+01  3.821471191E+03
3.117169778E+01  3.884221191E+03
3.119185131E+01  3.959746094E+03
3.121200483E+01  4.037765625E+03
3.123215836E+01  4.121401855E+03
3.125231189E+01  4.217617188E+03
3.127246541E+01  4.282526855E+03
3.129261894E+01  4.310346191E+03
3.131277247E+01  4.263624023E+03
3.133292599E+01  4.224821777E+03
3.135307952E+01  4.165390137E+03
3.137323305E+01  4.118555176E+03
3.139338657E+01  4.191719727E+03
3.141354010E+01  4.289088379E+03
3.143369363E+01  4.293620605E+03
3.145384715E+01  4.194553223E+03
3.147400068E+01  3.889750732E+03
