2.991289510 601.0
3.013468520 634.0
3.035647530 579.0
3.057826540 603.0
3.080005550 597.0
3.102184560 640.0
3.124363570 613.0
3.146542580 648.0
3.168721590 678.0
3.190900600 715.0
3.213079610 719.0
3.235258620 693.0
3.257437630 773.0
3.279616640 794.0
3.301795650 849.0
3.323974660 831.0
3.346153670 866.0
3.368332680 839.0
3.390511690 857.0
3.412690700 914.0
3.434869710 1015.0
3.457048720 973.0
3.479227730 965.0
3.501406740 983.0
3.523585750 1076.0
3.545764760 1023.0
3.567943770 1077.0
3.590122780 1098.0
3.612301790 1155.0
3.634480800 1199.0
3.656659810 1208.0
3.678838820 1208.0
3.701017830 1213.0
3.723196840 1233.0
3.745375850 1281.0
3.767554860 1322.0
3.789733870 1235.0
3.811912880 1321.0
3.834091890 1334.0
3.856270900 1326.0
3.878449910 1364.0
3.900628920 1422.0
3.922807930 1398.0
3.944986940 1390.0
3.967165950 1435.0
3.989344960 1485.0
4.011523970 1482.0
4.033702980 1486.0
4.055881990 1491.0
4.078061000 1528.0
4.100240010 1497.0
4.122419020 1583.0
4.144598030 1495.0
4.166777040 1607.0
4.188956050 1531.0
4.211135060 1559.0
4.233314070 1609.0
4.255493080 1488.0
4.277672090 1560.0
4.299851100 1568.0
4.322030110 1589.0
4.344209120 1578.0
4.366388130 1504.0
4.388567140 1496.0
4.410746150 1517.0
4.432925160 1513.0
4.455104170 1503.0
4.477283180 1474.0
4.499462190 1497.0
4.521641200 1470.0
4.543820210 1488.0
4.565999220 1480.0
4.588178230 1476.0
4.610357240 1413.0
4.632536250 1470.0
4.654715260 1412.0
4.676894270 1450.0
4.699073280 1432.0
4.721252290 1440.0
4.743431300 1396.0
4.765610310 1343.0
4.787789320 1403.0
4.809968330 1397.0
4.832147340 1505.0
4.854326350 1427.0
4.876505360 1365.0
4.898684370 1474.0
4.920863380 1410.0
4.943042390 1434.0
4.965221400 1411.0
4.987400410 1342.0
5.009579420 1350.0
5.031758430 1416.0
5.053937440 1348.0
5.076116450 1432.0
5.098295460 1329.0
5.120474470 1413.0
5.142653480 1376.0
5.164832490 1344.0
5.187011500 1304.0
5.209190510 1314.0
5.231369520 1390.0
5.253548530 1337.0
5.275727540 1271.0
5.297906550 1282.0
5.320085560 1309.0
5.342264570 1320.0
5.364443580 1357.0
5.386622590 1339.0
5.408801600 1387.0
5.430980610 1290.0
5.453159620 1269.0
5.475338630 1342.0
5.497517640 1340.0
5.519696650 1246.0
5.541875660 1337.0
5.564054670 1302.0
5.586233680 1376.0
5.608412690 1344.0
5.630591700 1326.0
5.652770709 1313.0
5.674949719 1322.0
5.697128729 1361.0
5.719307739 1333.0
5.741486749 1347.0
5.763665759 1343.0
5.785844769 1293.0
5.808023779 1307.0
5.830202789 1352.0
5.852381799 1317.0
5.874560809 1341.0
5.896739819 1328.0
5.918918829 1348.0
5.941097839 1389.0
5.963276849 1394.0
5.985455859 1367.0
6.007634869 1360.0
6.029813879 1377.0
6.051992889 1346.0
6.074171899 1391.0
6.096350909 1382.0
6.118529919 1379.0
6.140708929 1395.0
6.162887939 1414.0
6.185066949 1361.0
6.207245959 1334.0
6.229424969 1339.0
6.251603979 1382.0
6.273782989 1403.0
6.295961999 1419.0
6.318141009 1382.0
6.340320019 1468.0
6.362499029 1410.0
6.384678039 1430.0
6.406857049 1332.0
6.429036059 1400.0
6.451215069 1403.0
6.473394079 1425.0
6.495573089 1439.0
6.517752099 1487.0
6.539931109 1474.0
6.562110119 1442.0
6.584289129 1397.0
6.606468139 1514.0
6.628647149 1412.0
6.650826159 1466.0
6.673005169 1511.0
6.695184179 1484.0
6.717363189 1490.0
6.739542199 1504.0
6.761721209 1525.0
6.783900219 1527.0
6.806079229 1529.0
6.828258239 1623.0
6.850437249 1546.0
6.872616259 1554.0
6.894795269 1545.0
6.916974279 1597.0
6.939153289 1520.0
6.961332299 1575.0
6.983511309 1575.0
7.005690319 1524.0
7.027869329 1600.0
7.050048339 1574.0
7.072227349 1663.0
7.094406359 1602.0
7.116585369 1592.0
7.138764379 1620.0
7.160943389 1626.0
7.183122399 1636.0
7.205301409 1611.0
7.227480419 1646.0
7.249659429 1628.0
7.271838439 1702.0
7.294017449 1676.0
7.316196459 1732.0
7.338375469 1715.0
7.360554479 1764.0
7.382733489 1742.0
7.404912499 1727.0
7.427091509 1768.0
7.449270519 1764.0
7.471449529 1816.0
7.493628539 1726.0
7.515807549 1805.0
7.537986559 1863.0
7.560165569 1799.0
7.582344579 1923.0
7.604523589 1851.0
7.626702599 1777.0
7.648881609 2002.0
7.671060619 1882.0
7.693239629 1886.0
7.715418639 1921.0
7.737597649 1991.0
7.759776659 1930.0
7.781955669 1916.0
7.804134679 2022.0
7.826313689 1919.0
7.848492699 1973.0
7.870671709 1989.0
7.892850719 2016.0
7.915029729 1993.0
7.937208739 2073.0
7.959387749 2078.0
7.981566759 2086.0
8.003745769 2064.0
8.025924779 2137.0
8.048103789 2133.0
8.070282799 2173.0
8.092461809 2133.0
8.114640819 2137.0
8.136819829 2165.0
8.158998839 2172.0
8.181177849 2280.0
8.203356859 2217.0
8.225535869 2270.0
8.247714879 2307.0
8.269893889 2263.0
8.292072899 2357.0
8.314251909 2414.0
8.336430919 2339.0
8.358609929 2403.0
8.380788939 2427.0
8.402967949 2478.0
8.425146959 2485.0
8.447325969 2391.0
8.469504979 2582.0
8.491683989 2561.0
8.513862999 2684.0
8.536042009 2755.0
8.558221019 2709.0
8.580400029 2791.0
8.602579039 2835.0
8.624758049 2767.0
8.646937059 2872.0
8.669116069 2955.0
8.691295079 2940.0
8.713474089 2980.0
8.735653099 3098.0
8.757832109 3046.0
8.780011119 3202.0
8.802190129 3257.0
8.824369139 3245.0
8.846548149 3294.0
8.868727159 3379.0
8.890906169 3417.0
8.913085179 3447.0
8.935264189 3570.0
8.957443199 3639.0
8.979622209 3625.0
9.001801219 3697.0
9.023980229 3745.0
9.046159239 3915.0
9.068338249 3935.0
9.090517259 4024.0
9.112696269 4013.0
9.134875279 4138.0
9.157054289 4089.0
9.179233299 4181.0
9.201412309 4392.0
9.223591319 4447.0
9.245770329 4410.0
9.267949339 4579.0
9.290128349 4668.0
9.312307359 4884.0
9.334486369 4950.0
9.356665379 5054.0
9.378844389 5076.0
9.401023399 5156.0
9.423202409 5276.0
9.445381419 5406.0
9.467560429 5285.0
9.489739439 5751.0
9.511918449 5756.0
9.534097459 5817.0
9.556276469 6008.0
9.578455479 6013.0
9.600634489 6322.0
9.622813499 6370.0
9.644992509 6409.0
9.667171519 6655.0
9.689350529 6815.0
9.711529539 7033.0
9.733708549 7063.0
9.755887559 7307.0
9.778066569 7389.0
9.800245579 7408.0
9.822424589 7623.0
9.844603599 7771.0
9.866782609 7887.0
9.888961619 7894.0
9.911140629 8068.0
9.933319639 8480.0
9.955498649 8588.0
9.977677659 8860.0
9.999856669 8718.0
10.022035679 8994.0
10.044214689 9006.0
10.066393699 9118.0
10.088572709 9238.0
10.110751719 9295.0
10.132930729 9320.0
10.155109739 9546.0
10.177288749 9331.0
10.199467759 9443.0
10.221646769 9330.0
10.243825779 9549.0
10.266004789 9316.0
10.288183799 9291.0
10.310362809 9282.0
10.332541819 9234.0
10.354720829 9288.0
10.376899839 9149.0
10.399078849 8974.0
10.421257859 9100.0
10.443436869 8846.0
10.465615879 8524.0
10.487794889 8531.0
10.509973899 8383.0
10.532152909 8264.0
10.554331919 8213.0
10.576510929 8157.0
10.598689939 7856.0
10.620868949 7765.0
10.643047959 7619.0
10.665226969 7506.0
10.687405979 7355.0
10.709584989 7245.0
10.731763999 7133.0
10.753943009 6918.0
10.776122019 6853.0
10.798301029 6704.0
10.820480039 6511.0
10.842659049 6393.0
10.864838059 6270.0
10.887017069 6269.0
10.909196079 6166.0
10.931375089 6003.0
10.953554098 5966.0
10.975733108 5688.0
10.997912118 5665.0
11.020091128 5609.0
11.042270138 5629.0
11.064449148 5398.0
11.086628158 5417.0
11.108807168 5183.0
11.130986178 5230.0
11.153165188 5314.0
11.175344198 5073.0
11.197523208 4983.0
11.219702218 5029.0
11.241881228 4977.0
11.264060238 4792.0
11.286239248 4909.0
11.308418258 4773.0
11.330597268 4956.0
11.352776278 4724.0
11.374955288 4782.0
11.397134298 4677.0
11.419313308 4789.0
11.441492318 4611.0
11.463671328 4636.0
11.485850338 4563.0
11.508029348 4691.0
11.530208358 4607.0
11.552387368 4703.0
11.574566378 4588.0
11.596745388 4525.0
11.618924398 4559.0
11.641103408 4494.0
11.663282418 4585.0
11.685461428 4532.0
11.707640438 4514.0
11.729819448 4384.0
11.751998458 4550.0
11.774177468 4315.0
11.796356478 4283.0
11.818535488 4292.0
11.840714498 4174.0
11.862893508 4159.0
11.885072518 4109.0
11.907251528 4178.0
11.929430538 4079.0
11.951609548 4042.0
11.973788558 3974.0
11.995967568 3901.0
12.018146578 3797.0
12.040325588 3693.0
12.062504598 3683.0
12.084683608 3714.0
12.106862618 3574.0
12.129041628 3500.0
12.151220638 3372.0
12.173399648 3394.0
12.195578658 3313.0
12.217757668 3281.0
12.239936678 3129.0
12.262115688 3148.0
12.284294698 3041.0
12.306473708 3025.0
12.328652718 3009.0
12.350831728 2893.0
12.373010738 2907.0
12.395189748 2682.0
12.417368758 2755.0
12.439547768 2545.0
12.461726778 2592.0
12.483905788 2675.0
12.506084798 2547.0
12.528263808 2579.0
12.550442818 2507.0
12.572621828 2494.0
12.594800838 2446.0
12.616979848 2360.0
12.639158858 2358.0
12.661337868 2338.0
12.683516878 2267.0
12.705695888 2198.0
12.727874898 2142.0
12.750053908 2217.0
12.772232918 2115.0
12.794411928 2046.0
12.816590938 2092.0
12.838769948 2002.0
12.860948958 1959.0
12.883127968 2002.0
12.905306978 1937.0
12.927485988 1955.0
12.949664998 1942.0
12.971844008 1893.0
12.994023018 1910.0
13.016202028 1799.0
13.038381038 1791.0
13.060560048 1843.0
13.082739058 1783.0
13.104918068 1758.0
13.127097078 1823.0
13.149276088 1694.0
13.171455098 1766.0
13.193634108 1731.0
13.215813118 1661.0
13.237992128 1768.0
13.260171138 1683.0
13.282350148 1646.0
13.304529158 1689.0
13.326708168 1695.0
13.348887178 1617.0
13.371066188 1576.0
13.393245198 1701.0
13.415424208 1564.0
13.437603218 1599.0
13.459782228 1585.0
13.481961238 1589.0
13.504140248 1526.0
13.526319258 1653.0
13.548498268 1521.0
13.570677278 1538.0
13.592856288 1566.0
13.615035298 1535.0
13.637214308 1576.0
13.659393318 1530.0
13.681572328 1527.0
13.703751338 1468.0
13.725930348 1557.0
13.748109358 1517.0
13.770288368 1554.0
13.792467378 1582.0
13.814646388 1512.0
13.836825398 1496.0
13.859004408 1497.0
13.881183418 1557.0
13.903362428 1492.0
13.925541438 1553.0
13.947720448 1567.0
13.969899458 1498.0
13.992078468 1470.0
14.014257478 1443.0
14.036436488 1538.0
14.058615498 1516.0
14.080794508 1523.0
14.102973518 1517.0
14.125152528 1567.0
14.147331538 1520.0
14.169510548 1606.0
14.191689558 1537.0
14.213868568 1524.0
14.236047578 1614.0
14.258226588 1600.0
14.280405598 1545.0
14.302584608 1617.0
14.324763618 1600.0
14.346942628 1601.0
14.369121638 1654.0
14.391300648 1671.0
14.413479658 1611.0
14.435658668 1587.0
14.457837678 1658.0
14.480016688 1679.0
14.502195698 1618.0
14.524374708 1663.0
14.546553718 1706.0
14.568732728 1633.0
14.590911738 1677.0
14.613090748 1783.0
14.635269758 1741.0
14.657448768 1677.0
14.679627778 1744.0
14.701806788 1753.0
14.723985798 1738.0
14.746164808 1760.0
14.768343818 1784.0
14.790522828 1836.0
14.812701838 1722.0
14.834880848 1761.0
14.857059858 1851.0
14.879238868 1819.0
14.901417878 1850.0
14.923596888 1813.0
14.945775898 1823.0
14.967954908 1950.0
14.990133918 1953.0
15.012312928 1942.0
15.034491938 1960.0
15.056670948 1954.0
15.078849958 1932.0
15.101028968 1976.0
15.123207978 2007.0
15.145386988 1965.0
15.167565998 2012.0
15.189745008 1959.0
15.211924018 1996.0
15.234103028 2128.0
15.256282038 2053.0
15.278461048 2163.0
15.300640058 2202.0
15.322819068 2184.0
15.344998078 2194.0
15.367177088 2195.0
15.389356098 2229.0
15.411535108 2253.0
15.433714118 2238.0
15.455893128 2267.0
15.478072138 2370.0
15.500251148 2347.0
15.522430158 2345.0
15.544609168 2341.0
15.566788178 2363.0
15.588967188 2470.0
15.611146198 2529.0
15.633325208 2474.0
15.655504218 2479.0
15.677683228 2641.0
15.699862238 2645.0
15.722041248 2652.0
15.744220258 2663.0
15.766399268 2749.0
15.788578278 2874.0
15.810757288 2823.0
15.832936298 2925.0
15.855115308 2872.0
15.877294318 2874.0
15.899473328 2976.0
15.921652338 3010.0
15.943831348 3245.0
15.966010358 3175.0
15.988189368 3207.0
16.010368378 3267.0
16.032547388 3427.0
16.054726398 3498.0
16.076905408 3551.0
16.099084418 3730.0
16.121263428 3795.0
16.143442438 3656.0
16.165621448 3862.0
16.187800458 3999.0
16.209979468 4040.0
16.232158478 3984.0
16.254337487 4320.0
16.276516497 4243.0
16.298695507 4255.0
16.320874517 4376.0
16.343053527 4566.0
16.365232537 4506.0
16.387411547 4703.0
16.409590557 4753.0
16.431769567 4643.0
16.453948577 4991.0
16.476127587 4686.0
16.498306597 4888.0
16.520485607 5072.0
16.542664617 5155.0
16.564843627 5207.0
16.587022637 5161.0
16.609201647 5133.0
16.631380657 5166.0
16.653559667 5249.0
16.675738677 5258.0
16.697917687 5233.0
16.720096697 5317.0
16.742275707 5287.0
16.764454717 5365.0
16.786633727 5408.0
16.808812737 5359.0
16.830991747 5382.0
16.853170757 5150.0
16.875349767 5323.0
16.897528777 5337.0
16.919707787 5104.0
16.941886797 5137.0
16.964065807 5214.0
16.986244817 5058.0
17.008423827 4866.0
17.030602837 4878.0
17.052781847 4902.0
17.074960857 4790.0
17.097139867 4722.0
17.119318877 4576.0
17.141497887 4530.0
17.163676897 4461.0
17.185855907 4584.0
17.208034917 4269.0
17.230213927 4350.0
17.252392937 4258.0
17.274571947 4268.0
17.296750957 4181.0
17.318929967 4112.0
17.341108977 3992.0
17.363287987 4014.0
17.385466997 3851.0
17.407646007 3783.0
17.429825017 3699.0
17.452004027 3659.0
17.474183037 3677.0
17.496362047 3565.0
17.518541057 3735.0
17.540720067 3517.0
17.562899077 3387.0
17.585078087 3432.0
17.607257097 3433.0
17.629436107 3390.0
17.651615117 3314.0
17.673794127 3198.0
17.695973137 3206.0
17.718152147 3258.0
17.740331157 3095.0
17.762510167 3183.0
17.784689177 3060.0
17.806868187 3104.0
17.829047197 3117.0
17.851226207 3063.0
17.873405217 2973.0
17.895584227 2950.0
17.917763237 2938.0
17.939942247 2861.0
17.962121257 2912.0
17.984300267 2799.0
18.006479277 2866.0
18.028658287 2829.0
18.050837297 2764.0
18.073016307 2786.0
18.095195317 2724.0
18.117374327 2798.0
18.139553337 2695.0
18.161732347 2747.0
18.183911357 2696.0
18.206090367 2686.0
18.228269377 2762.0
18.250448387 2787.0
18.272627397 2725.0
18.294806407 2735.0
18.316985417 2740.0
18.339164427 2745.0
18.361343437 2694.0
18.383522447 2699.0
18.405701457 2631.0
18.427880467 2782.0
18.450059477 2639.0
18.472238487 2620.0
18.494417497 2697.0
18.516596507 2822.0
18.538775517 2658.0
18.560954527 2688.0
18.583133537 2751.0
18.605312547 2742.0
18.627491557 2744.0
18.649670567 2739.0
18.671849577 2813.0
18.694028587 2713.0
18.716207597 2709.0
18.738386607 2781.0
18.760565617 2801.0
18.782744627 2952.0
18.804923637 2879.0
18.827102647 2929.0
18.849281657 2954.0
18.871460667 2924.0
18.893639677 2996.0
18.915818687 3025.0
18.937997697 3082.0
18.960176707 3104.0
18.982355717 3137.0
19.004534727 3246.0
19.026713737 3309.0
19.048892747 3315.0
19.071071757 3333.0
19.093250767 3410.0
19.115429777 3422.0
19.137608787 3485.0
19.159787797 3531.0
19.181966807 3631.0
19.204145817 3651.0
19.226324827 3702.0
19.248503837 3854.0
19.270682847 3880.0
19.292861857 3974.0
19.315040867 4008.0
19.337219877 4062.0
19.359398887 4106.0
19.381577897 4224.0
19.403756907 4172.0
19.425935917 4208.0
19.448114927 4334.0
19.470293937 4402.0
19.492472947 4391.0
19.514651957 4305.0
19.536830967 4460.0
19.559009977 4527.0
19.581188987 4461.0
19.603367997 4390.0
19.625547007 4434.0
19.647726017 4704.0
19.669905027 4374.0
19.692084037 4636.0
19.714263047 4667.0
19.736442057 4508.0
19.758621067 4538.0
19.780800077 4508.0
19.802979087 4492.0
19.825158097 4368.0
19.847337107 4454.0
19.869516117 4438.0
19.891695127 4467.0
19.913874137 4374.0
19.936053147 4224.0
19.958232157 4245.0
19.980411167 4260.0
20.002590177 4050.0
20.024769187 4154.0
20.046948197 4114.0
20.069127207 4165.0
20.091306217 3988.0
20.113485227 3852.0
20.135664237 3905.0
20.157843247 3883.0
20.180022257 3767.0
20.202201267 3777.0
20.224380277 3650.0
20.246559287 3574.0
20.268738297 3641.0
20.290917307 3525.0
20.313096317 3433.0
20.335275327 3432.0
20.357454337 3457.0
20.379633347 3331.0
20.401812357 3319.0
20.423991367 3221.0
20.446170377 3268.0
20.468349387 3272.0
20.490528397 3161.0
20.512707407 3041.0
20.534886417 3098.0
20.557065427 3022.0
20.579244437 2900.0
20.601423447 2879.0
20.623602457 2941.0
20.645781467 2971.0
20.667960477 2923.0
20.690139487 2792.0
20.712318497 2779.0
20.734497507 2775.0
20.756676517 2688.0
20.778855527 2672.0
20.801034537 2602.0
20.823213547 2638.0
20.845392557 2559.0
20.867571567 2518.0
20.889750577 2516.0
20.911929587 2430.0
20.934108597 2500.0
20.956287607 2397.0
20.978466617 2347.0
21.000645627 2352.0
21.022824637 2300.0
21.045003647 2382.0
21.067182657 2291.0
21.089361667 2201.0
21.111540677 2204.0
21.133719687 2148.0
21.155898697 2164.0
21.178077707 2142.0
21.200256717 2140.0
21.222435727 2119.0
21.244614737 2050.0
21.266793747 2033.0
21.288972757 1986.0
21.311151767 1934.0
21.333330777 1940.0
21.355509787 1889.0
21.377688797 1839.0
21.399867807 1871.0
21.422046817 1874.0
21.444225827 1775.0
21.466404837 1868.0
21.488583847 1908.0
21.510762857 1738.0
21.532941867 1760.0
21.555120876 1770.0
21.577299886 1690.0
21.599478896 1692.0
21.621657906 1715.0
21.643836916 1725.0
21.666015926 1725.0
21.688194936 1651.0
21.710373946 1672.0
21.732552956 1568.0
21.754731966 1589.0
21.776910976 1604.0
21.799089986 1582.0
21.821268996 1499.0
21.843448006 1477.0
21.865627016 1521.0
21.887806026 1485.0
21.909985036 1546.0
21.932164046 1502.0
21.954343056 1566.0
21.976522066 1478.0
21.998701076 1467.0
22.020880086 1407.0
22.043059096 1393.0
22.065238106 1470.0
22.087417116 1522.0
22.109596126 1367.0
22.131775136 1444.0
22.153954146 1361.0
22.176133156 1482.0
22.198312166 1389.0
22.220491176 1323.0
22.242670186 1435.0
22.264849196 1424.0
22.287028206 1322.0
22.309207216 1393.0
22.331386226 1411.0
22.353565236 1337.0
22.375744246 1315.0
22.397923256 1322.0
22.420102266 1382.0
22.442281276 1293.0
22.464460286 1320.0
22.486639296 1260.0
22.508818306 1373.0
22.530997316 1375.0
22.553176326 1369.0
22.575355336 1346.0
22.597534346 1367.0
22.619713356 1303.0
22.641892366 1319.0
22.664071376 1308.0
22.686250386 1308.0
22.708429396 1298.0
22.730608406 1338.0
22.752787416 1341.0
22.774966426 1290.0
22.797145436 1366.0
22.819324446 1306.0
22.841503456 1330.0
22.863682466 1289.0
22.885861476 1285.0
22.908040486 1358.0
22.930219496 1382.0
22.952398506 1332.0
22.974577516 1350.0
22.996756526 1345.0
23.018935536 1351.0
23.041114546 1384.0
23.063293556 1369.0
23.085472566 1422.0
23.107651576 1429.0
23.129830586 1466.0
23.152009596 1373.0
23.174188606 1457.0
23.196367616 1408.0
23.218546626 1380.0
23.240725636 1414.0
23.262904646 1408.0
23.285083656 1417.0
23.307262666 1520.0
23.329441676 1460.0
23.351620686 1539.0
23.373799696 1420.0
23.395978706 1511.0
23.418157716 1605.0
23.440336726 1547.0
23.462515736 1579.0
23.484694746 1521.0
23.506873756 1594.0
23.529052766 1651.0
23.551231776 1551.0
23.573410786 1642.0
23.595589796 1696.0
23.617768806 1577.0
23.639947816 1665.0
23.662126826 1642.0
23.684305836 1661.0
23.706484846 1570.0
23.728663856 1684.0
23.750842866 1722.0
23.773021876 1618.0
23.795200886 1613.0
23.817379896 1722.0
23.839558906 1658.0
23.861737916 1663.0
23.883916926 1678.0
23.906095936 1632.0
23.928274946 1642.0
23.950453956 1676.0
23.972632966 1596.0
23.994811976 1696.0
24.016990986 1742.0
24.039169996 1691.0
24.061349006 1675.0
24.083528016 1693.0
24.105707026 1610.0
24.127886036 1588.0
24.150065046 1669.0
24.172244056 1702.0
24.194423066 1615.0
24.216602076 1630.0
24.238781086 1690.0
24.260960096 1545.0
24.283139106 1590.0
24.305318116 1568.0
24.327497126 1630.0
24.349676136 1615.0
24.371855146 1526.0
24.394034156 1624.0
24.416213166 1557.0
24.438392176 1541.0
24.460571186 1577.0
24.482750196 1537.0
24.504929206 1591.0
24.527108216 1516.0
24.549287226 1535.0
24.571466236 1520.0
24.593645246 1537.0
24.615824256 1522.0
24.638003266 1474.0
24.660182276 1530.0
24.682361286 1511.0
24.704540296 1556.0
24.726719306 1533.0
24.748898316 1578.0
24.771077326 1562.0
24.793256336 1544.0
24.815435346 1628.0
24.837614356 1605.0
24.859793366 1568.0
24.881972376 1543.0
24.904151386 1549.0
24.926330396 1591.0
24.948509406 1558.0
24.970688416 1573.0
24.992867426 1625.0
25.015046436 1549.0
25.037225446 1633.0
25.059404456 1664.0
25.081583466 1683.0
25.103762476 1706.0
25.125941486 1662.0
25.148120496 1700.0
25.170299506 1765.0
25.192478516 1725.0
25.214657526 1777.0
25.236836536 1839.0
25.259015546 1826.0
25.281194556 1792.0
25.303373566 1859.0
25.325552576 1905.0
25.347731586 1916.0
25.369910596 1940.0
25.392089606 1955.0
25.414268616 2028.0
25.436447626 1984.0
25.458626636 1983.0
25.480805646 2109.0
25.502984656 2010.0
25.525163666 2149.0
25.547342676 2174.0
25.569521686 2142.0
25.591700696 2216.0
25.613879706 2174.0
25.636058716 2172.0
25.658237726 2219.0
25.680416736 2206.0
25.702595746 2268.0
25.724774756 2381.0
25.746953766 2401.0
25.769132776 2443.0
25.791311786 2480.0
25.813490796 2481.0
25.835669806 2324.0
25.857848816 2469.0
25.880027826 2535.0
25.902206836 2460.0
25.924385846 2507.0
25.946564856 2645.0
25.968743866 2512.0
25.990922876 2622.0
26.013101886 2557.0
26.035280896 2589.0
26.057459906 2722.0
26.079638916 2620.0
26.101817926 2670.0
26.123996936 2603.0
26.146175946 2630.0
26.168354956 2686.0
26.190533966 2693.0
26.212712976 2607.0
26.234891986 2767.0
26.257070996 2743.0
26.279250006 2693.0
26.301429016 2630.0
26.323608026 2733.0
26.345787036 2622.0
26.367966046 2712.0
26.390145056 2655.0
26.412324066 2740.0
26.434503076 2684.0
26.456682086 2604.0
26.478861096 2691.0
26.501040106 2673.0
26.523219116 2618.0
26.545398126 2714.0
26.567577136 2557.0
26.589756146 2629.0
26.611935156 2633.0
26.634114166 2637.0
26.656293176 2530.0
26.678472186 2484.0
26.700651196 2569.0
26.722830206 2454.0
26.745009216 2498.0
26.767188226 2494.0
26.789367236 2521.0
26.811546246 2522.0
26.833725256 2377.0
26.855904265 2404.0
26.878083275 2395.0
26.900262285 2408.0
26.922441295 2333.0
26.944620305 2338.0
26.966799315 2290.0
26.988978325 2224.0
27.011157335 2268.0
27.033336345 2215.0
27.055515355 2184.0
27.077694365 2156.0
27.099873375 2112.0
27.122052385 2190.0
27.144231395 2087.0
27.166410405 2067.0
27.188589415 2064.0
27.210768425 2033.0
27.232947435 2033.0
27.255126445 2044.0
27.277305455 1987.0
27.299484465 1920.0
27.321663475 1909.0
27.343842485 1946.0
27.366021495 1979.0
27.388200505 1946.0
27.410379515 1935.0
27.432558525 1913.0
27.454737535 1911.0
27.476916545 1809.0
27.499095555 1807.0
27.521274565 1856.0
27.543453575 1859.0
27.565632585 1757.0
27.587811595 1743.0
27.609990605 1702.0
27.632169615 1743.0
27.654348625 1736.0
27.676527635 1809.0
27.698706645 1687.0
27.720885655 1764.0
27.743064665 1714.0
27.765243675 1707.0
27.787422685 1722.0
27.809601695 1642.0
27.831780705 1731.0
27.853959715 1659.0
27.876138725 1677.0
27.898317735 1631.0
27.920496745 1656.0
27.942675755 1590.0
27.964854765 1630.0
27.987033775 1663.0
28.009212785 1685.0
28.031391795 1609.0
28.053570805 1650.0
28.075749815 1653.0
28.097928825 1679.0
28.120107835 1715.0
28.142286845 1561.0
28.164465855 1586.0
28.186644865 1660.0
28.208823875 1668.0
28.231002885 1618.0
28.253181895 1668.0
28.275360905 1567.0
28.297539915 1599.0
28.319718925 1667.0
28.341897935 1714.0
28.364076945 1686.0
28.386255955 1741.0
28.408434965 1553.0
28.430613975 1663.0
28.452792985 1739.0
28.474971995 1729.0
28.497151005 1726.0
28.519330015 1710.0
28.541509025 1781.0
28.563688035 1774.0
28.585867045 1851.0
28.608046055 1742.0
28.630225065 1811.0
28.652404075 1896.0
28.674583085 1750.0
28.696762095 1781.0
28.718941105 1828.0
28.741120115 1825.0
28.763299125 1895.0
28.785478135 1862.0
28.807657145 1833.0
28.829836155 1958.0
28.852015165 1851.0
28.874194175 1909.0
28.896373185 1948.0
28.918552195 1927.0
28.940731205 1953.0
28.962910215 2059.0
28.985089225 2027.0
29.007268235 2030.0
29.029447245 2009.0
29.051626255 1959.0
29.073805265 2006.0
29.095984275 2048.0
29.118163285 1974.0
29.140342295 2001.0
29.162521305 2087.0
29.184700315 2033.0
29.206879325 2002.0
29.229058335 2029.0
29.251237345 2031.0
29.273416355 1949.0
29.295595365 1995.0
29.317774375 2083.0
29.339953385 2033.0
29.362132395 2164.0
29.384311405 2085.0
29.406490415 1890.0
29.428669425 1979.0
29.450848435 1987.0
29.473027445 1967.0
29.495206455 2016.0
29.517385465 1965.0
29.539564475 1994.0
29.561743485 2016.0
29.583922495 1929.0
29.606101505 1913.0
29.628280515 2001.0
29.650459525 1892.0
29.672638535 1864.0
29.694817545 1796.0
29.716996555 1810.0
29.739175565 1790.0
29.761354575 1811.0
29.783533585 1879.0
29.805712595 1814.0
29.827891605 1817.0
29.850070615 1811.0
29.872249625 1732.0
29.894428635 1703.0
29.916607645 1790.0
29.938786655 1780.0
29.960965665 1673.0
29.983144675 1716.0
30.005323685 1707.0
30.027502695 1731.0
30.049681705 1653.0
30.071860715 1686.0
30.094039725 1713.0
30.116218735 1676.0
30.138397745 1781.0
30.160576755 1714.0
30.182755765 1707.0
30.204934775 1585.0
30.227113785 1639.0
30.249292795 1651.0
30.271471805 1636.0
30.293650815 1644.0
30.315829825 1567.0
30.338008835 1696.0
30.360187845 1692.0
30.382366855 1633.0
30.404545865 1718.0
30.426724875 1710.0
30.448903885 1636.0
30.471082895 1670.0
30.493261905 1735.0
30.515440915 1658.0
30.537619925 1728.0
30.559798935 1645.0
30.581977945 1672.0
30.604156955 1713.0
30.626335965 1763.0
30.648514975 1701.0
30.670693985 1763.0
30.692872995 1748.0
30.715052005 1687.0
30.737231015 1772.0
30.759410025 1784.0
30.781589035 1798.0
30.803768045 1806.0
30.825947055 1888.0
30.848126065 1749.0
30.870305075 1766.0
30.892484085 1773.0
30.914663095 1900.0
30.936842105 1789.0
30.959021115 1829.0
30.981200125 1811.0
31.003379135 1787.0
31.025558145 1815.0
31.047737155 1847.0
31.069916165 1818.0
31.092095175 1849.0
31.114274185 1779.0
31.136453195 1870.0
31.158632205 1851.0
31.180811215 1730.0
31.202990225 1754.0
31.225169235 1872.0
31.247348245 1810.0
31.269527255 1782.0
31.291706265 1785.0
31.313885275 1743.0
31.336064285 1811.0
31.358243295 1739.0
31.380422305 1690.0
31.402601315 1789.0
31.424780325 1756.0
31.446959335 1647.0
31.469138345 1684.0
31.491317355 1706.0
31.513496365 1689.0
31.535675375 1679.0
31.557854385 1695.0
31.580033395 1605.0
31.602212405 1597.0
31.624391415 1550.0
31.646570425 1581.0
31.668749435 1555.0
31.690928445 1607.0
31.713107455 1522.0
31.735286465 1511.0
31.757465475 1468.0
31.779644485 1444.0
31.801823495 1464.0
31.824002505 1492.0
31.846181515 1378.0
31.868360525 1441.0
31.890539535 1394.0
31.912718545 1410.0
31.934897555 1324.0
31.957076565 1385.0
31.979255575 1326.0
32.001434585 1311.0
32.023613595 1387.0
32.045792605 1371.0
32.067971615 1277.0
32.090150625 1315.0
32.112329635 1308.0
32.134508645 1251.0
32.156687654 1269.0
32.178866664 1225.0
32.201045674 1244.0
32.223224684 1248.0
32.245403694 1357.0
32.267582704 1153.0
32.289761714 1238.0
32.311940724 1146.0
32.334119734 1232.0
32.356298744 1153.0
32.378477754 1212.0
32.400656764 1178.0
32.422835774 1200.0
32.445014784 1195.0
32.467193794 1195.0
32.489372804 1198.0
32.511551814 1117.0
32.533730824 1168.0
32.555909834 1169.0
32.578088844 1212.0
32.600267854 1204.0
32.622446864 1112.0
32.644625874 1146.0
32.666804884 1196.0
32.688983894 1155.0
32.711162904 1164.0
32.733341914 1191.0
32.755520924 1089.0
32.777699934 1126.0
32.799878944 1193.0
32.822057954 1113.0
32.844236964 1168.0
32.866415974 1137.0
32.888594984 1115.0
32.910773994 1155.0
32.932953004 1124.0
32.955132014 1138.0
32.977311024 1117.0
32.999490034 1141.0
33.021669044 1194.0
33.043848054 1194.0
33.066027064 1130.0
33.088206074 1144.0
33.110385084 1165.0
33.132564094 1175.0
33.154743104 1097.0
33.176922114 1093.0
33.199101124 1067.0
33.221280134 1154.0
33.243459144 1193.0
33.265638154 1126.0
33.287817164 1175.0
33.309996174 1146.0
33.332175184 1133.0
33.354354194 1173.0
33.376533204 1165.0
33.398712214 1172.0
33.420891224 1208.0
33.443070234 1130.0
33.465249244 1114.0
33.487428254 1227.0
33.509607264 1195.0
33.531786274 1229.0
33.553965284 1179.0
33.576144294 1239.0
33.598323304 1171.0
33.620502314 1264.0
33.642681324 1204.0
33.664860334 1195.0
33.687039344 1173.0
33.709218354 1192.0
33.731397364 1232.0
33.753576374 1243.0
33.775755384 1277.0
33.797934394 1172.0
33.820113404 1210.0
33.842292414 1209.0
33.864471424 1259.0
33.886650434 1194.0
33.908829444 1252.0
33.931008454 1278.0
33.953187464 1227.0
33.975366474 1227.0
33.997545484 1340.0
34.019724494 1216.0
34.041903504 1238.0
34.064082514 1266.0
34.086261524 1324.0
34.108440534 1225.0
34.130619544 1237.0
34.152798554 1269.0
34.174977564 1261.0
34.197156574 1216.0
34.219335584 1282.0
34.241514594 1314.0
34.263693604 1195.0
34.285872614 1282.0
34.308051624 1270.0
34.330230634 1278.0
34.352409644 1326.0
34.374588654 1267.0
34.396767664 1274.0
34.418946674 1283.0
34.441125684 1272.0
34.463304694 1298.0
34.485483704 1342.0
34.507662714 1300.0
34.529841724 1276.0
34.552020734 1260.0
34.574199744 1239.0
34.596378754 1333.0
34.618557764 1303.0
34.640736774 1278.0
34.662915784 1367.0
34.685094794 1325.0
34.707273804 1352.0
34.729452814 1310.0
34.751631824 1368.0
34.773810834 1366.0
34.795989844 1318.0
34.818168854 1314.0
34.840347864 1399.0
34.862526874 1378.0
34.884705884 1457.0
34.906884894 1445.0
34.929063904 1417.0
34.951242914 1481.0
34.973421924 1411.0
34.995600934 1388.0
35.017779944 1453.0
35.039958954 1562.0
35.062137964 1545.0
35.084316974 1459.0
35.106495984 1637.0
35.128674994 1585.0
35.150854004 1610.0
35.173033014 1537.0
35.195212024 1532.0
35.217391034 1602.0
35.239570044 1605.0
35.261749054 1642.0
35.283928064 1613.0
35.306107074 1626.0
35.328286084 1647.0
35.350465094 1596.0
35.372644104 1693.0
35.394823114 1660.0
35.417002124 1643.0
35.439181134 1708.0
35.461360144 1612.0
35.483539154 1684.0
35.505718164 1645.0
35.527897174 1679.0
35.550076184 1710.0
35.572255194 1614.0
35.594434204 1710.0
35.616613214 1674.0
35.638792224 1715.0
35.660971234 1725.0
35.683150244 1687.0
35.705329254 1798.0
35.727508264 1769.0
35.749687274 1755.0
35.771866284 1754.0
35.794045294 1725.0
35.816224304 1749.0
35.838403314 1694.0
35.860582324 1747.0
35.882761334 1772.0
35.904940344 1745.0
35.927119354 1729.0
35.949298364 1732.0
35.971477374 1654.0
35.993656384 1680.0
36.015835394 1749.0
36.038014404 1680.0
36.060193414 1686.0
36.082372424 1686.0
36.104551434 1552.0
36.126730444 1623.0
36.148909454 1599.0
36.171088464 1623.0
36.193267474 1612.0
36.215446484 1578.0
36.237625494 1586.0
36.259804504 1590.0
36.281983514 1479.0
36.304162524 1501.0
36.326341534 1496.0
36.348520544 1583.0
36.370699554 1497.0
36.392878564 1462.0
36.415057574 1554.0
36.437236584 1530.0
36.459415594 1459.0
36.481594604 1443.0
36.503773614 1467.0
36.525952624 1417.0
36.548131634 1360.0
36.570310644 1415.0
36.592489654 1378.0
36.614668664 1336.0
36.636847674 1362.0
36.659026684 1369.0
36.681205694 1361.0
36.703384704 1275.0
36.725563714 1299.0
36.747742724 1283.0
36.769921734 1297.0
36.792100744 1294.0
36.814279754 1220.0
36.836458764 1363.0
36.858637774 1309.0
36.880816784 1246.0
36.902995794 1314.0
36.925174804 1289.0
36.947353814 1226.0
36.969532824 1237.0
36.991711834 1244.0
37.013890844 1142.0
37.036069854 1245.0
37.058248864 1253.0
37.080427874 1174.0
37.102606884 1222.0
37.124785894 1168.0
37.146964904 1195.0
37.169143914 1264.0
37.191322924 1193.0
37.213501934 1144.0
37.235680944 1176.0
37.257859954 1136.0
37.280038964 1178.0
37.302217974 1152.0
37.324396984 1191.0
37.346575994 1177.0
37.368755004 1236.0
37.390934014 1107.0
37.413113024 1191.0
37.435292034 1161.0
37.457471043 1144.0
37.479650053 1137.0
37.501829063 1155.0
37.524008073 1149.0
37.546187083 1155.0
37.568366093 1172.0
37.590545103 1201.0
37.612724113 1202.0
37.634903123 1243.0
37.657082133 1187.0
37.679261143 1136.0
37.701440153 1208.0
37.723619163 1256.0
37.745798173 1171.0
37.767977183 1146.0
37.790156193 1180.0
37.812335203 1239.0
37.834514213 1218.0
37.856693223 1241.0
37.878872233 1218.0
37.901051243 1232.0
37.923230253 1215.0
37.945409263 1235.0
37.967588273 1200.0
37.989767283 1252.0
38.011946293 1210.0
38.034125303 1302.0
38.056304313 1259.0
38.078483323 1294.0
38.100662333 1296.0
38.122841343 1238.0
38.145020353 1233.0
38.167199363 1233.0
38.189378373 1222.0
38.211557383 1162.0
38.233736393 1255.0
38.255915403 1231.0
38.278094413 1165.0
38.300273423 1160.0
38.322452433 1185.0
38.344631443 1244.0
38.366810453 1239.0
38.388989463 1213.0
38.411168473 1167.0
38.433347483 1193.0
38.455526493 1228.0
38.477705503 1163.0
38.499884513 1161.0
38.522063523 1238.0
38.544242533 1163.0
38.566421543 1187.0
38.588600553 1212.0
38.610779563 1149.0
38.632958573 1165.0
38.655137583 1142.0
38.677316593 1180.0
38.699495603 1060.0
38.721674613 1191.0
38.743853623 1164.0
38.766032633 1140.0
38.788211643 1140.0
38.810390653 1169.0
38.832569663 1141.0
38.854748673 1105.0
38.876927683 1168.0
38.899106693 1136.0
38.921285703 1129.0
38.943464713 1170.0
38.965643723 1111.0
38.987822733 1185.0
39.010001743 1160.0
39.032180753 1144.0
39.054359763 1154.0
39.076538773 1118.0
39.098717783 1159.0
39.120896793 1152.0
39.143075803 1174.0
39.165254813 1141.0
39.187433823 1129.0
39.209612833 1141.0
39.231791843 1176.0
39.253970853 1121.0
39.276149863 1114.0
39.298328873 1127.0
39.320507883 1126.0
39.342686893 1126.0
39.364865903 1159.0
39.387044913 1186.0
39.409223923 1163.0
39.431402933 1099.0
39.453581943 1137.0
39.475760953 1164.0
39.497939963 1065.0
39.520118973 1143.0
39.542297983 1172.0
39.564476993 1224.0
39.586656003 1114.0
39.608835013 1157.0
39.631014023 1170.0
39.653193033 1181.0
39.675372043 1147.0
39.697551053 1104.0
39.719730063 1167.0
39.741909073 1167.0
39.764088083 1156.0
39.786267093 1130.0
39.808446103 1075.0
39.830625113 1173.0
39.852804123 1191.0
39.874983133 1175.0
39.897162143 1146.0
39.919341153 1143.0
39.941520163 1158.0
39.963699173 1155.0
39.985878183 1132.0
40.008057193 1159.0
40.030236203 1178.0
40.052415213 1167.0
40.074594223 1162.0
40.096773233 1103.0
40.118952243 1137.0
40.141131253 1103.0
40.163310263 1127.0
40.185489273 1125.0
40.207668283 1034.0
40.229847293 1042.0
40.252026303 1036.0
40.274205313 1028.0
40.296384323 1093.0
40.318563333 1074.0
40.340742343 1021.0
40.362921353 1059.0
40.385100363 1057.0
40.407279373 1047.0
40.429458383 1006.0
40.451637393 1074.0
40.473816403 1001.0
40.495995413 1052.0
40.518174423 981.0
40.540353433 1084.0
40.562532443 983.0
40.584711453 991.0
40.606890463 944.0
40.629069473 1040.0
40.651248483 973.0
40.673427493 972.0
40.695606503 968.0
40.717785513 976.0
40.739964523 964.0
40.762143533 1011.0
40.784322543 965.0
40.806501553 981.0
40.828680563 927.0
40.850859573 952.0
40.873038583 925.0
40.895217593 949.0
40.917396603 931.0
40.939575613 989.0
40.961754623 896.0
40.983933633 930.0
41.006112643 937.0
41.028291653 895.0
41.050470663 983.0
41.072649673 901.0
41.094828683 880.0
41.117007693 894.0
41.139186703 921.0
41.161365713 911.0
41.183544723 947.0
41.205723733 877.0
41.227902743 903.0
41.250081753 905.0
41.272260763 890.0
41.294439773 908.0
41.316618783 915.0
41.338797793 924.0
41.360976803 904.0
41.383155813 912.0
41.405334823 888.0
41.427513833 913.0
41.449692843 908.0
41.471871853 883.0
41.494050863 850.0
41.516229873 920.0
41.538408883 869.0
41.560587893 880.0
41.582766903 836.0
41.604945913 848.0
41.627124923 893.0
41.649303933 926.0
41.671482943 847.0
41.693661953 866.0
41.715840963 921.0
41.738019973 873.0
41.760198983 862.0
41.782377993 875.0
41.804557003 861.0
41.826736013 882.0
41.848915023 911.0
41.871094033 872.0
41.893273043 855.0
41.915452053 927.0
41.937631063 903.0
41.959810073 887.0
41.981989083 871.0
42.004168093 893.0
42.026347103 898.0
42.048526113 857.0
42.070705123 907.0
42.092884133 904.0
42.115063143 927.0
42.137242153 863.0
42.159421163 866.0
42.181600173 925.0
42.203779183 913.0
42.225958193 910.0
42.248137203 842.0
42.270316213 958.0
42.292495223 914.0
42.314674233 911.0
42.336853243 910.0
42.359032253 949.0
42.381211263 946.0
42.403390273 953.0
42.425569283 870.0
42.447748293 915.0
42.469927303 934.0
42.492106313 972.0
42.514285323 1004.0
42.536464333 942.0
42.558643343 958.0
42.580822353 1010.0
42.603001363 902.0
42.625180373 970.0
42.647359383 1000.0
42.669538393 990.0
42.691717403 992.0
42.713896413 967.0
42.736075423 1023.0
42.758254432 961.0
42.780433442 1032.0
42.802612452 1013.0
42.824791462 1036.0
42.846970472 1016.0
42.869149482 1023.0
42.891328492 1018.0
42.913507502 1029.0
42.935686512 1076.0
42.957865522 1094.0
42.980044532 1053.0
43.002223542 1050.0
43.024402552 1068.0
43.046581562 1058.0
43.068760572 1069.0
43.090939582 1042.0
43.113118592 1058.0
43.135297602 1033.0
43.157476612 1079.0
43.179655622 1021.0
43.201834632 1130.0
43.224013642 1078.0
43.246192652 1026.0
43.268371662 1091.0
43.290550672 1118.0
43.312729682 1098.0
43.334908692 1080.0
43.357087702 1123.0
43.379266712 1125.0
43.401445722 1109.0
43.423624732 1112.0
43.445803742 1050.0
43.467982752 1089.0
43.490161762 1122.0
43.512340772 1031.0
43.534519782 1120.0
43.556698792 1093.0
43.578877802 1122.0
43.601056812 1060.0
43.623235822 1166.0
43.645414832 1062.0
43.667593842 1080.0
43.689772852 1084.0
43.711951862 1108.0
43.734130872 1114.0
43.756309882 1108.0
43.778488892 1048.0
43.800667902 1056.0
43.822846912 1023.0
43.845025922 1042.0
43.867204932 1076.0
43.889383942 1085.0
43.911562952 1059.0
43.933741962 999.0
43.955920972 1081.0
43.978099982 993.0
44.000278992 1099.0
44.022458002 1015.0
44.044637012 1006.0
44.066816022 995.0
44.088995032 1016.0
44.111174042 1035.0
44.133353052 1059.0
44.155532062 1070.0
44.177711072 977.0
44.199890082 1042.0
44.222069092 983.0
44.244248102 1066.0
44.266427112 983.0
44.288606122 988.0
44.310785132 918.0
44.332964142 949.0
44.355143152 930.0
44.377322162 960.0
44.399501172 1004.0
44.421680182 940.0
44.443859192 989.0
44.466038202 969.0
44.488217212 955.0
44.510396222 938.0
44.532575232 964.0
44.554754242 983.0
44.576933252 992.0
44.599112262 964.0
44.621291272 1033.0
44.643470282 990.0
44.665649292 1000.0
44.687828302 948.0
44.710007312 1006.0
44.732186322 998.0
44.754365332 933.0
44.776544342 958.0
44.798723352 1012.0
44.820902362 974.0
44.843081372 936.0
44.865260382 1016.0
44.887439392 950.0
44.909618402 989.0
44.931797412 948.0
44.953976422 1006.0
44.976155432 963.0
44.998334442 1106.0
45.020513452 945.0
45.042692462 991.0
45.064871472 1015.0
45.087050482 1049.0
45.109229492 977.0
45.131408502 1033.0
45.153587512 1062.0
45.175766522 1016.0
45.197945532 1009.0
45.220124542 1055.0
45.242303552 1010.0
45.264482562 1032.0
45.286661572 1053.0
45.308840582 1054.0
45.331019592 1045.0
45.353198602 994.0
45.375377612 967.0
45.397556622 1028.0
45.419735632 1028.0
45.441914642 1017.0
45.464093652 1065.0
45.486272662 1024.0
45.508451672 1014.0
45.530630682 1035.0
45.552809692 1056.0
45.574988702 1023.0
45.597167712 955.0
45.619346722 1036.0
45.641525732 1023.0
45.663704742 1067.0
45.685883752 1014.0
45.708062762 1006.0
45.730241772 1060.0
45.752420782 1124.0
45.774599792 1024.0
45.796778802 1078.0
45.818957812 1057.0
45.841136822 1074.0
45.863315832 1022.0
45.885494842 1025.0
45.907673852 1027.0
45.929852862 1047.0
45.952031872 1127.0
45.974210882 1032.0
45.996389892 1083.0
46.018568902 1076.0
46.040747912 1096.0
46.062926922 1095.0
46.085105932 1089.0
46.107284942 1098.0
46.129463952 1073.0
46.151642962 1094.0
46.173821972 1045.0
46.196000982 1075.0
46.218179992 977.0
46.240359002 1088.0
46.262538012 1045.0
46.284717022 1060.0
46.306896032 1027.0
46.329075042 1065.0
46.351254052 1061.0
46.373433062 1048.0
46.395612072 1097.0
46.417791082 1088.0
46.439970092 1061.0
46.462149102 1047.0
46.484328112 1045.0
46.506507122 1057.0
46.528686132 1034.0
46.550865142 1075.0
46.573044152 1067.0
46.595223162 1028.0
46.617402172 1043.0
46.639581182 1037.0
46.661760192 1031.0
46.683939202 1091.0
46.706118212 1068.0
46.728297222 1002.0
46.750476232 1058.0
46.772655242 974.0
46.794834252 1040.0
46.817013262 1090.0
46.839192272 1042.0
46.861371282 988.0
46.883550292 980.0
46.905729302 1080.0
46.927908312 1006.0
46.950087322 978.0
46.972266332 993.0
46.994445342 1005.0
47.016624352 1027.0
47.038803362 958.0
47.060982372 1017.0
47.083161382 954.0
47.105340392 996.0
47.127519402 927.0
47.149698412 971.0
47.171877422 1005.0
47.194056432 1022.0
47.216235442 951.0
47.238414452 928.0
47.260593462 907.0
47.282772472 881.0
47.304951482 939.0
47.327130492 916.0
47.349309502 871.0
47.371488512 922.0
47.393667522 899.0
47.415846532 885.0
47.438025542 865.0
47.460204552 892.0
47.482383562 892.0
47.504562572 899.0
47.526741582 870.0
47.548920592 912.0
47.571099602 875.0
47.593278612 835.0
47.615457622 861.0
47.637636632 848.0
47.659815642 887.0
47.681994652 870.0
47.704173662 880.0
47.726352672 901.0
47.748531682 786.0
47.770710692 861.0
47.792889702 807.0
47.815068712 839.0
47.837247722 806.0
47.859426732 791.0
47.881605742 767.0
47.903784752 814.0
47.925963762 837.0
47.948142772 796.0
47.970321782 794.0
47.992500792 738.0
48.014679802 777.0
48.036858812 808.0
48.059037821 813.0
48.081216831 761.0
48.103395841 790.0
48.125574851 753.0
48.147753861 801.0
48.169932871 801.0
48.192111881 781.0
48.214290891 757.0
48.236469901 762.0
48.258648911 726.0
48.280827921 732.0
48.303006931 740.0
48.325185941 754.0
48.347364951 712.0
48.369543961 739.0
48.391722971 745.0
48.413901981 686.0
48.436080991 776.0
48.458260001 749.0
48.480439011 772.0
48.502618021 764.0
48.524797031 758.0
48.546976041 768.0
48.569155051 754.0
48.591334061 773.0
48.613513071 695.0
48.635692081 786.0
48.657871091 710.0
48.680050101 735.0
48.702229111 739.0
48.724408121 737.0
48.746587131 747.0
48.768766141 762.0
48.790945151 733.0
48.813124161 754.0
48.835303171 718.0
48.857482181 729.0
48.879661191 708.0
48.901840201 749.0
48.924019211 717.0
48.946198221 767.0
48.968377231 731.0
48.990556241 735.0
49.012735251 741.0
49.034914261 723.0
49.057093271 724.0
49.079272281 728.0
49.101451291 709.0
49.123630301 765.0
49.145809311 696.0
49.167988321 728.0
49.190167331 755.0
49.212346341 759.0
49.234525351 714.0
49.256704361 737.0
49.278883371 740.0
49.301062381 729.0
49.323241391 765.0
49.345420401 801.0
49.367599411 655.0
49.389778421 700.0
49.411957431 785.0
49.434136441 762.0
49.456315451 742.0
49.478494461 761.0
49.500673471 740.0
49.522852481 775.0
49.545031491 707.0
49.567210501 776.0
49.589389511 790.0
49.611568521 745.0
49.633747531 736.0
49.655926541 808.0
49.678105551 765.0
49.700284561 785.0
49.722463571 783.0
49.744642581 750.0
49.766821591 843.0
49.789000601 796.0
49.811179611 807.0
49.833358621 780.0
49.855537631 786.0
49.877716641 771.0
49.899895651 775.0
49.922074661 760.0
49.944253671 780.0
49.966432681 764.0
49.988611691 776.0
50.010790701 816.0
50.032969711 778.0
50.055148721 764.0
50.077327731 783.0
50.099506741 829.0
50.121685751 783.0
50.143864761 792.0
50.166043771 846.0
50.188222781 776.0
50.210401791 747.0
50.232580801 850.0
50.254759811 808.0
50.276938821 737.0
50.299117831 766.0
50.321296841 784.0
50.343475851 817.0
50.365654861 812.0
50.387833871 784.0
50.410012881 818.0
50.432191891 800.0
50.454370901 810.0
50.476549911 730.0
50.498728921 798.0
50.520907931 766.0
50.543086941 776.0
50.565265951 787.0
50.587444961 777.0
50.609623971 757.0
50.631802981 773.0
50.653981991 792.0
50.676161001 743.0
50.698340011 756.0
50.720519021 793.0
50.742698031 808.0
50.764877041 745.0
50.787056051 788.0
50.809235061 779.0
50.831414071 783.0
50.853593081 759.0
50.875772091 809.0
50.897951101 762.0
50.920130111 769.0
50.942309121 760.0
50.964488131 771.0
50.986667141 764.0
51.008846151 790.0
51.031025161 737.0
51.053204171 770.0
51.075383181 685.0
51.097562191 781.0
51.119741201 768.0
51.141920211 718.0
51.164099221 745.0
51.186278231 777.0
51.208457241 726.0
51.230636251 788.0
51.252815261 768.0
51.274994271 749.0
51.297173281 717.0
51.319352291 696.0
51.341531301 707.0
51.363710311 795.0
51.385889321 780.0
51.408068331 734.0
51.430247341 717.0
51.452426351 759.0
51.474605361 713.0
51.496784371 715.0
51.518963381 787.0
51.541142391 739.0
51.563321401 764.0
51.585500411 749.0
51.607679421 775.0
51.629858431 686.0
51.652037441 724.0
51.674216451 757.0
51.696395461 757.0
51.718574471 757.0
51.740753481 784.0
51.762932491 726.0
51.785111501 720.0
51.807290511 755.0
51.829469521 766.0
51.851648531 759.0
51.873827541 775.0
51.896006551 763.0
51.918185561 733.0
51.940364571 712.0
51.962543581 716.0
51.984722591 744.0
52.006901601 734.0
52.029080611 743.0
52.051259621 753.0
52.073438631 730.0
52.095617641 732.0
52.117796651 811.0
52.139975661 712.0
52.162154671 791.0
52.184333681 757.0
52.206512691 735.0
52.228691701 723.0
52.250870711 692.0
52.273049721 748.0
52.295228731 748.0
52.317407741 746.0
52.339586751 767.0
52.361765761 775.0
52.383944771 731.0
52.406123781 746.0
52.428302791 734.0
52.450481801 779.0
52.472660811 729.0
52.494839821 766.0
52.517018831 698.0
52.539197841 784.0
52.561376851 711.0
52.583555861 807.0
52.605734871 713.0
52.627913881 723.0
52.650092891 745.0
52.672271901 833.0
52.694450911 744.0
52.716629921 784.0
52.738808931 737.0
52.760987941 745.0
52.783166951 715.0
52.805345961 762.0
52.827524971 761.0
52.849703981 750.0
52.871882991 724.0
52.894062001 739.0
52.916241011 724.0
52.938420021 757.0
52.960599031 769.0
52.982778041 808.0
53.004957051 798.0
53.027136061 780.0
53.049315071 785.0
53.071494081 785.0
53.093673091 790.0
53.115852101 762.0
53.138031111 803.0
53.160210121 758.0
53.182389131 759.0
53.204568141 784.0
53.226747151 788.0
53.248926161 699.0
53.271105171 731.0
53.293284181 694.0
53.315463191 716.0
53.337642201 710.0
53.359821210 777.0
53.382000220 778.0
53.404179230 791.0
53.426358240 749.0
53.448537250 738.0
53.470716260 762.0
53.492895270 755.0
53.515074280 748.0
53.537253290 745.0
53.559432300 721.0
53.581611310 685.0
53.603790320 706.0
53.625969330 725.0
53.648148340 743.0
53.670327350 722.0
53.692506360 717.0
53.714685370 738.0
53.736864380 705.0
53.759043390 698.0
53.781222400 673.0
53.803401410 724.0
53.825580420 741.0
53.847759430 716.0
53.869938440 736.0
53.892117450 738.0
53.914296460 711.0
53.936475470 691.0
53.958654480 707.0
53.980833490 722.0
54.003012500 698.0
54.025191510 729.0
54.047370520 697.0
54.069549530 686.0
54.091728540 671.0
54.113907550 689.0
54.136086560 700.0
54.158265570 690.0
54.180444580 649.0
54.202623590 717.0
54.224802600 704.0
54.246981610 678.0
54.269160620 685.0
54.291339630 666.0
54.313518640 715.0
54.335697650 673.0
54.357876660 688.0
54.380055670 641.0
54.402234680 683.0
54.424413690 695.0
54.446592700 745.0
54.468771710 704.0
54.490950720 641.0
54.513129730 710.0
54.535308740 692.0
54.557487750 702.0
54.579666760 639.0
54.601845770 695.0
54.624024780 694.0
54.646203790 693.0
54.668382800 645.0
54.690561810 647.0
54.712740820 711.0
54.734919830 620.0
54.757098840 627.0
54.779277850 701.0
54.801456860 648.0
54.823635870 649.0
54.845814880 664.0
54.867993890 685.0
54.890172900 688.0
54.912351910 701.0
54.934530920 673.0
54.956709930 703.0
54.978888940 715.0
55.001067950 677.0
55.023246960 649.0
55.045425970 657.0
55.067604980 697.0
55.089783990 649.0
55.111963000 657.0
55.134142010 688.0
55.156321020 671.0
55.178500030 667.0
55.200679040 681.0
55.222858050 672.0
55.245037060 743.0
55.267216070 697.0
55.289395080 655.0
55.311574090 693.0
55.333753100 711.0
55.355932110 674.0
55.378111120 717.0
55.400290130 718.0
55.422469140 710.0
55.444648150 680.0
55.466827160 678.0
55.489006170 704.0
55.511185180 718.0
55.533364190 717.0
55.555543200 685.0
55.577722210 685.0
55.599901220 705.0
55.622080230 730.0
55.644259240 676.0
55.666438250 654.0
55.688617260 748.0
55.710796270 694.0
55.732975280 683.0
55.755154290 691.0
55.777333300 747.0
55.799512310 680.0
55.821691320 766.0
55.843870330 667.0
55.866049340 712.0
55.888228350 706.0
55.910407360 694.0
55.932586370 700.0
55.954765380 740.0
55.976944390 726.0
55.999123400 680.0
