2.991289510 538.0
3.013468520 563.0
3.035647530 600.0
3.057826540 601.0
3.080005550 582.0
3.102184560 583.0
3.124363570 624.0
3.146542580 601.0
3.168721590 613.0
3.190900600 604.0
3.213079610 618.0
3.235258620 596.0
3.257437630 616.0
3.279616640 627.0
3.301795650 684.0
3.323974660 678.0
3.346153670 696.0
3.368332680 678.0
3.390511690 731.0
3.412690700 810.0
3.434869710 807.0
3.457048720 767.0
3.479227730 780.0
3.501406740 844.0
3.523585750 901.0
3.545764760 915.0
3.567943770 893.0
3.590122780 888.0
3.612301790 958.0
3.634480800 1080.0
3.656659810 1055.0
3.678838820 1028.0
3.701017830 1065.0
3.723196840 1122.0
3.745375850 1080.0
3.767554860 1139.0
3.789733870 1183.0
3.811912880 1283.0
3.834091890 1299.0
3.856270900 1278.0
3.878449910 1281.0
3.900628920 1317.0
3.922807930 1422.0
3.944986940 1436.0
3.967165950 1440.0
3.989344960 1513.0
4.011523970 1577.0
4.033702980 1581.0
4.055881990 1606.0
4.078061000 1613.0
4.100240010 1667.0
4.122419020 1637.0
4.144598030 1628.0
4.166777040 1588.0
4.188956050 1635.0
4.211135060 1672.0
4.233314070 1690.0
4.255493080 1714.0
4.277672090 1683.0
4.299851100 1711.0
4.322030110 1678.0
4.344209120 1674.0
4.366388130 1636.0
4.388567140 1666.0
4.410746150 1557.0
4.432925160 1650.0
4.455104170 1589.0
4.477283180 1576.0
4.499462190 1583.0
4.521641200 1664.0
4.543820210 1668.0
4.565999220 1573.0
4.588178230 1632.0
4.610357240 1590.0
4.632536250 1592.0
4.654715260 1579.0
4.676894270 1512.0
4.699073280 1520.0
4.721252290 1495.0
4.743431300 1586.0
4.765610310 1575.0
4.787789320 1457.0
4.809968330 1545.0
4.832147340 1555.0
4.854326350 1519.0
4.876505360 1610.0
4.898684370 1523.0
4.920863380 1576.0
4.943042390 1545.0
4.965221400 1513.0
4.987400410 1478.0
5.009579420 1439.0
5.031758430 1566.0
5.053937440 1547.0
5.076116450 1467.0
5.098295460 1479.0
5.120474470 1502.0
5.142653480 1495.0
5.164832490 1470.0
5.187011500 1444.0
5.209190510 1632.0
5.231369520 1520.0
5.253548530 1506.0
5.275727540 1506.0
5.297906550 1483.0
5.320085560 1524.0
5.342264570 1472.0
5.364443580 1507.0
5.386622590 1508.0
5.408801600 1509.0
5.430980610 1450.0
5.453159620 1529.0
5.475338630 1407.0
5.497517640 1519.0
5.519696650 1550.0
5.541875660 1518.0
5.564054670 1532.0
5.586233680 1521.0
5.608412690 1493.0
5.630591700 1503.0
5.652770709 1498.0
5.674949719 1477.0
5.697128729 1548.0
5.719307739 1544.0
5.741486749 1461.0
5.763665759 1603.0
5.785844769 1602.0
5.808023779 1555.0
5.830202789 1540.0
5.852381799 1583.0
5.874560809 1613.0
5.896739819 1458.0
5.918918829 1548.0
5.941097839 1605.0
5.963276849 1517.0
5.985455859 1563.0
6.007634869 1598.0
6.029813879 1568.0
6.051992889 1613.0
6.074171899 1507.0
6.096350909 1548.0
6.118529919 1628.0
6.140708929 1590.0
6.162887939 1619.0
6.185066949 1586.0
6.207245959 1616.0
6.229424969 1676.0
6.251603979 1649.0
6.273782989 1634.0
6.295961999 1735.0
6.318141009 1669.0
6.340320019 1732.0
6.362499029 1707.0
6.384678039 1658.0
6.406857049 1777.0
6.429036059 1590.0
6.451215069 1695.0
6.473394079 1836.0
6.495573089 1722.0
6.517752099 1719.0
6.539931109 1773.0
6.562110119 1738.0
6.584289129 1726.0
6.606468139 1767.0
6.628647149 1824.0
6.650826159 1801.0
6.673005169 1805.0
6.695184179 1861.0
6.717363189 1878.0
6.739542199 1970.0
6.761721209 1929.0
6.783900219 1812.0
6.806079229 1779.0
6.828258239 1891.0
6.850437249 1962.0
6.872616259 1980.0
6.894795269 1967.0
6.916974279 1909.0
6.939153289 2045.0
6.961332299 1952.0
6.983511309 1956.0
7.005690319 2028.0
7.027869329 1938.0
7.050048339 2063.0
7.072227349 2007.0
7.094406359 2028.0
7.116585369 2073.0
7.138764379 2010.0
7.160943389 1998.0
7.183122399 2065.0
7.205301409 2109.0
7.227480419 2114.0
7.249659429 2109.0
7.271838439 2135.0
7.294017449 2090.0
7.316196459 2123.0
7.338375469 2176.0
7.360554479 2248.0
7.382733489 2177.0
7.404912499 2146.0
7.427091509 2131.0
7.449270519 2112.0
7.471449529 2195.0
7.493628539 2304.0
7.515807549 2209.0
7.537986559 2213.0
7.560165569 2219.0
7.582344579 2214.0
7.604523589 2300.0
7.626702599 2312.0
7.648881609 2338.0
7.671060619 2219.0
7.693239629 2307.0
7.715418639 2247.0
7.737597649 2334.0
7.759776659 2365.0
7.781955669 2434.0
7.804134679 2394.0
7.826313689 2355.0
7.848492699 2321.0
7.870671709 2368.0
7.892850719 2348.0
7.915029729 2395.0
7.937208739 2445.0
7.959387749 2450.0
7.981566759 2398.0
8.003745769 2414.0
8.025924779 2354.0
8.048103789 2330.0
8.070282799 2366.0
8.092461809 2424.0
8.114640819 2386.0
8.136819829 2488.0
8.158998839 2454.0
8.181177849 2436.0
8.203356859 2410.0
8.225535869 2448.0
8.247714879 2558.0
8.269893889 2462.0
8.292072899 2533.0
8.314251909 2446.0
8.336430919 2510.0
8.358609929 2476.0
8.380788939 2490.0
8.402967949 2512.0
8.425146959 2514.0
8.447325969 2571.0
8.469504979 2585.0
8.491683989 2540.0
8.513862999 2613.0
8.536042009 2675.0
8.558221019 2653.0
8.580400029 2605.0
8.602579039 2635.0
8.624758049 2645.0
8.646937059 2709.0
8.669116069 2763.0
8.691295079 2765.0
8.713474089 2760.0
8.735653099 2740.0
8.757832109 2799.0
8.780011119 2873.0
8.802190129 2866.0
8.824369139 2896.0
8.846548149 2925.0
8.868727159 2864.0
8.890906169 2907.0
8.913085179 2852.0
8.935264189 3041.0
8.957443199 2966.0
8.979622209 3072.0
9.001801219 3113.0
9.023980229 3016.0
9.046159239 3140.0
9.068338249 3115.0
9.090517259 3280.0
9.112696269 3256.0
9.134875279 3323.0
9.157054289 3243.0
9.179233299 3182.0
9.201412309 3347.0
9.223591319 3298.0
9.245770329 3401.0
9.267949339 3498.0
9.290128349 3406.0
9.312307359 3494.0
9.334486369 3524.0
9.356665379 3582.0
9.378844389 3690.0
9.401023399 3829.0
9.423202409 3764.0
9.445381419 3814.0
9.467560429 3801.0
9.489739439 3897.0
9.511918449 3943.0
9.534097459 4017.0
9.556276469 4160.0
9.578455479 4219.0
9.600634489 4178.0
9.622813499 4288.0
9.644992509 4356.0
9.667171519 4476.0
9.689350529 4566.0
9.711529539 4676.0
9.733708549 4617.0
9.755887559 4773.0
9.778066569 4994.0
9.800245579 4956.0
9.822424589 5151.0
9.844603599 5257.0
9.866782609 5451.0
9.888961619 5508.0
9.911140629 5497.0
9.933319639 5664.0
9.955498649 5842.0
9.977677659 6018.0
9.999856669 6289.0
10.022035679 6365.0
10.044214689 6419.0
10.066393699 6544.0
10.088572709 6675.0
10.110751719 6846.0
10.132930729 6944.0
10.155109739 7178.0
10.177288749 7199.0
10.199467759 7358.0
10.221646769 7385.0
10.243825779 7327.0
10.266004789 7496.0
10.288183799 7341.0
10.310362809 7414.0
10.332541819 7171.0
10.354720829 7159.0
10.376899839 7147.0
10.399078849 6838.0
10.421257859 6914.0
10.443436869 6715.0
10.465615879 6392.0
10.487794889 6304.0
10.509973899 6067.0
10.532152909 5909.0
10.554331919 5664.0
10.576510929 5479.0
10.598689939 5518.0
10.620868949 5097.0
10.643047959 4842.0
10.665226969 4838.0
10.687405979 4808.0
10.709584989 4696.0
10.731763999 4551.0
10.753943009 4414.0
10.776122019 4327.0
10.798301029 4164.0
10.820480039 4059.0
10.842659049 4114.0
10.864838059 4065.0
10.887017069 3954.0
10.909196079 3872.0
10.931375089 3807.0
10.953554098 3757.0
10.975733108 3650.0
10.997912118 3565.0
11.020091128 3687.0
11.042270138 3568.0
11.064449148 3746.0
11.086628158 3511.0
11.108807168 3498.0
11.130986178 3446.0
11.153165188 3408.0
11.175344198 3413.0
11.197523208 3410.0
11.219702218 3358.0
11.241881228 3277.0
11.264060238 3215.0
11.286239248 3265.0
11.308418258 3202.0
11.330597268 3152.0
11.352776278 3278.0
11.374955288 3188.0
11.397134298 3342.0
11.419313308 3145.0
11.441492318 3103.0
11.463671328 3137.0
11.485850338 3110.0
11.508029348 3176.0
11.530208358 3221.0
11.552387368 3209.0
11.574566378 3086.0
11.596745388 3259.0
11.618924398 3230.0
11.641103408 3189.0
11.663282418 3295.0
11.685461428 3226.0
11.707640438 3156.0
11.729819448 3238.0
11.751998458 3221.0
11.774177468 3275.0
11.796356478 3261.0
11.818535488 3242.0
11.840714498 3235.0
11.862893508 3195.0
11.885072518 3221.0
11.907251528 3184.0
11.929430538 3192.0
11.951609548 3083.0
11.973788558 3091.0
11.995967568 2942.0
12.018146578 2896.0
12.040325588 2848.0
12.062504598 2855.0
12.084683608 2764.0
12.106862618 2729.0
12.129041628 2596.0
12.151220638 2469.0
12.173399648 2465.0
12.195578658 2404.0
12.217757668 2379.0
12.239936678 2388.0
12.262115688 2347.0
12.284294698 2145.0
12.306473708 2244.0
12.328652718 2114.0
12.350831728 2082.0
12.373010738 2097.0
12.395189748 2005.0
12.417368758 2049.0
12.439547768 2043.0
12.461726778 1959.0
12.483905788 1952.0
12.506084798 1926.0
12.528263808 1868.0
12.550442818 1840.0
12.572621828 1891.0
12.594800838 1766.0
12.616979848 1825.0
12.639158858 1714.0
12.661337868 1767.0
12.683516878 1776.0
12.705695888 1762.0
12.727874898 1698.0
12.750053908 1718.0
12.772232918 1685.0
12.794411928 1650.0
12.816590938 1633.0
12.838769948 1664.0
12.860948958 1590.0
12.883127968 1540.0
12.905306978 1593.0
12.927485988 1542.0
12.949664998 1550.0
12.971844008 1524.0
12.994023018 1554.0
13.016202028 1519.0
13.038381038 1519.0
13.060560048 1515.0
13.082739058 1476.0
13.104918068 1552.0
13.127097078 1455.0
13.149276088 1494.0
13.171455098 1415.0
13.193634108 1474.0
13.215813118 1455.0
13.237992128 1504.0
13.260171138 1427.0
13.282350148 1451.0
13.304529158 1456.0
13.326708168 1415.0
13.348887178 1481.0
13.371066188 1450.0
13.393245198 1359.0
13.415424208 1409.0
13.437603218 1418.0
13.459782228 1378.0
13.481961238 1341.0
13.504140248 1336.0
13.526319258 1405.0
13.548498268 1418.0
13.570677278 1356.0
13.592856288 1385.0
13.615035298 1349.0
13.637214308 1321.0
13.659393318 1338.0
13.681572328 1382.0
13.703751338 1342.0
13.725930348 1378.0
13.748109358 1389.0
13.770288368 1372.0
13.792467378 1394.0
13.814646388 1430.0
13.836825398 1368.0
13.859004408 1361.0
13.881183418 1358.0
13.903362428 1362.0
13.925541438 1402.0
13.947720448 1431.0
13.969899458 1354.0
13.992078468 1344.0
14.014257478 1326.0
14.036436488 1328.0
14.058615498 1404.0
14.080794508 1378.0
14.102973518 1404.0
14.125152528 1392.0
14.147331538 1374.0
14.169510548 1406.0
14.191689558 1372.0
14.213868568 1385.0
14.236047578 1398.0
14.258226588 1307.0
14.280405598 1411.0
14.302584608 1443.0
14.324763618 1412.0
14.346942628 1445.0
14.369121638 1443.0
14.391300648 1404.0
14.413479658 1463.0
14.435658668 1567.0
14.457837678 1453.0
14.480016688 1455.0
14.502195698 1506.0
14.524374708 1479.0
14.546553718 1452.0
14.568732728 1472.0
14.590911738 1452.0
14.613090748 1547.0
14.635269758 1481.0
14.657448768 1468.0
14.679627778 1549.0
14.701806788 1551.0
14.723985798 1558.0
14.746164808 1577.0
14.768343818 1540.0
14.790522828 1546.0
14.812701838 1603.0
14.834880848 1609.0
14.857059858 1541.0
14.879238868 1580.0
14.901417878 1670.0
14.923596888 1582.0
14.945775898 1605.0
14.967954908 1591.0
14.990133918 1604.0
15.012312928 1635.0
15.034491938 1724.0
15.056670948 1702.0
15.078849958 1746.0
15.101028968 1779.0
15.123207978 1712.0
15.145386988 1771.0
15.167565998 1809.0
15.189745008 1753.0
15.211924018 1736.0
15.234103028 1715.0
15.256282038 1704.0
15.278461048 1723.0
15.300640058 1759.0
15.322819068 1712.0
15.344998078 1747.0
15.367177088 1761.0
15.389356098 1751.0
15.411535108 1866.0
15.433714118 1785.0
15.455893128 1806.0
15.478072138 1846.0
15.500251148 1932.0
15.522430158 1839.0
15.544609168 1872.0
15.566788178 1888.0
15.588967188 1921.0
15.611146198 1915.0
15.633325208 2004.0
15.655504218 1966.0
15.677683228 1932.0
15.699862238 1937.0
15.722041248 2031.0
15.744220258 2007.0
15.766399268 2074.0
15.788578278 2044.0
15.810757288 2069.0
15.832936298 2052.0
15.855115308 2219.0
15.877294318 2087.0
15.899473328 2117.0
15.921652338 2093.0
15.943831348 2200.0
15.966010358 2202.0
15.988189368 2186.0
16.010368378 2127.0
16.032547388 2287.0
16.054726398 2294.0
16.076905408 2300.0
16.099084418 2315.0
16.121263428 2388.0
16.143442438 2364.0
16.165621448 2419.0
16.187800458 2426.0
16.209979468 2438.0
16.232158478 2489.0
16.254337487 2559.0
16.276516497 2655.0
16.298695507 2654.0
16.320874517 2673.0
16.343053527 2881.0
16.365232537 2875.0
16.387411547 2909.0
16.409590557 2912.0
16.431769567 3050.0
16.453948577 3111.0
16.476127587 3121.0
16.498306597 3187.0
16.520485607 3272.0
16.542664617 3352.0
16.564843627 3483.0
16.587022637 3530.0
16.609201647 3590.0
16.631380657 3675.0
16.653559667 3812.0
16.675738677 3698.0
16.697917687 3877.0
16.720096697 3793.0
16.742275707 3981.0
16.764454717 3951.0
16.786633727 3957.0
16.808812737 3901.0
16.830991747 3895.0
16.853170757 3913.0
16.875349767 3893.0
16.897528777 3866.0
16.919707787 3878.0
16.941886797 3791.0
16.964065807 3738.0
16.986244817 3644.0
17.008423827 3557.0
17.030602837 3489.0
17.052781847 3444.0
17.074960857 3388.0
17.097139867 3314.0
17.119318877 3247.0
17.141497887 3236.0
17.163676897 3036.0
17.185855907 3009.0
17.208034917 3017.0
17.230213927 2941.0
17.252392937 2881.0
17.274571947 2789.0
17.296750957 2704.0
17.318929967 2672.0
17.341108977 2608.0
17.363287987 2548.0
17.385466997 2562.0
17.407646007 2390.0
17.429825017 2386.0
17.452004027 2420.0
17.474183037 2362.0
17.496362047 2315.0
17.518541057 2316.0
17.540720067 2396.0
17.562899077 2291.0
17.585078087 2233.0
17.607257097 2179.0
17.629436107 2234.0
17.651615117 2281.0
17.673794127 2253.0
17.695973137 2253.0
17.718152147 2141.0
17.740331157 2075.0
17.762510167 2106.0
17.784689177 2162.0
17.806868187 2136.0
17.829047197 2078.0
17.851226207 2131.0
17.873405217 2063.0
17.895584227 2022.0
17.917763237 2152.0
17.939942247 2157.0
17.962121257 2038.0
17.984300267 2064.0
18.006479277 2023.0
18.028658287 2080.0
18.050837297 2031.0
18.073016307 2016.0
18.095195317 2052.0
18.117374327 1987.0
18.139553337 1978.0
18.161732347 2056.0
18.183911357 2017.0
18.206090367 2031.0
18.228269377 1955.0
18.250448387 2002.0
18.272627397 1957.0
18.294806407 1980.0
18.316985417 1961.0
18.339164427 1958.0
18.361343437 1964.0
18.383522447 1926.0
18.405701457 1890.0
18.427880467 1920.0
18.450059477 1950.0
18.472238487 2020.0
18.494417497 1950.0
18.516596507 1944.0
18.538775517 1935.0
18.560954527 1936.0
18.583133537 1902.0
18.605312547 2004.0
18.627491557 1900.0
18.649670567 1975.0
18.671849577 1938.0
18.694028587 1907.0
18.716207597 1973.0
18.738386607 2000.0
18.760565617 1909.0
18.782744627 1968.0
18.804923637 2016.0
18.827102647 1933.0
18.849281657 2025.0
18.871460667 2021.0
18.893639677 1985.0
18.915818687 2026.0
18.937997697 2052.0
18.960176707 2044.0
18.982355717 2018.0
19.004534727 2077.0
19.026713737 2007.0
19.048892747 2075.0
19.071071757 2061.0
19.093250767 2225.0
19.115429777 2188.0
19.137608787 2265.0
19.159787797 2181.0
19.181966807 2280.0
19.204145817 2188.0
19.226324827 2315.0
19.248503837 2306.0
19.270682847 2361.0
19.292861857 2517.0
19.315040867 2505.0
19.337219877 2617.0
19.359398887 2592.0
19.381577897 2607.0
19.403756907 2582.0
19.425935917 2654.0
19.448114927 2730.0
19.470293937 2805.0
19.492472947 2876.0
19.514651957 3019.0
19.536830967 2950.0
19.559009977 3032.0
19.581188987 3118.0
19.603367997 3222.0
19.625547007 3291.0
19.647726017 3142.0
19.669905027 3229.0
19.692084037 3357.0
19.714263047 3258.0
19.736442057 3178.0
19.758621067 3233.0
19.780800077 3262.0
19.802979087 3203.0
19.825158097 3159.0
19.847337107 3236.0
19.869516117 3221.0
19.891695127 3187.0
19.913874137 3116.0
19.936053147 3025.0
19.958232157 2964.0
19.980411167 2916.0
20.002590177 2811.0
20.024769187 2774.0
20.046948197 2732.0
20.069127207 2629.0
20.091306217 2695.0
20.113485227 2668.0
20.135664237 2535.0
20.157843247 2470.0
20.180022257 2348.0
20.202201267 2401.0
20.224380277 2338.0
20.246559287 2316.0
20.268738297 2280.0
20.290917307 2199.0
20.313096317 2139.0
20.335275327 2192.0
20.357454337 2157.0
20.379633347 2189.0
20.401812357 2091.0
20.423991367 2049.0
20.446170377 2142.0
20.468349387 2128.0
20.490528397 2076.0
20.512707407 2074.0
20.534886417 1998.0
20.557065427 1943.0
20.579244437 1943.0
20.601423447 2034.0
20.623602457 1945.0
20.645781467 1918.0
20.667960477 1875.0
20.690139487 2003.0
20.712318497 1938.0
20.734497507 1899.0
20.756676517 1943.0
20.778855527 1836.0
20.801034537 1794.0
20.823213547 1876.0
20.845392557 1771.0
20.867571567 1655.0
20.889750577 1782.0
20.911929587 1781.0
20.934108597 1748.0
20.956287607 1630.0
20.978466617 1705.0
21.000645627 1669.0
21.022824637 1656.0
21.045003647 1627.0
21.067182657 1669.0
21.089361667 1539.0
21.111540677 1559.0
21.133719687 1489.0
21.155898697 1610.0
21.178077707 1580.0
21.200256717 1545.0
21.222435727 1495.0
21.244614737 1488.0
21.266793747 1525.0
21.288972757 1559.0
21.311151767 1420.0
21.333330777 1417.0
21.355509787 1509.0
21.377688797 1421.0
21.399867807 1372.0
21.422046817 1396.0
21.444225827 1432.0
21.466404837 1375.0
21.488583847 1371.0
21.510762857 1395.0
21.532941867 1286.0
21.555120876 1344.0
21.577299886 1373.0
21.599478896 1284.0
21.621657906 1296.0
21.643836916 1236.0
21.666015926 1292.0
21.688194936 1269.0
21.710373946 1280.0
21.732552956 1231.0
21.754731966 1233.0
21.776910976 1284.0
21.799089986 1261.0
21.821268996 1250.0
21.843448006 1295.0
21.865627016 1177.0
21.887806026 1226.0
21.909985036 1266.0
21.932164046 1223.0
21.954343056 1217.0
21.976522066 1267.0
21.998701076 1228.0
22.020880086 1164.0
22.043059096 1183.0
22.065238106 1203.0
22.087417116 1251.0
22.109596126 1163.0
22.131775136 1097.0
22.153954146 1154.0
22.176133156 1152.0
22.198312166 1228.0
22.220491176 1128.0
22.242670186 1165.0
22.264849196 1155.0
22.287028206 1138.0
22.309207216 1155.0
22.331386226 1159.0
22.353565236 1104.0
22.375744246 1137.0
22.397923256 1147.0
22.420102266 1162.0
22.442281276 1099.0
22.464460286 1122.0
22.486639296 1119.0
22.508818306 1120.0
22.530997316 1124.0
22.553176326 1149.0
22.575355336 1114.0
22.597534346 1097.0
22.619713356 1107.0
22.641892366 1102.0
22.664071376 1157.0
22.686250386 1126.0
22.708429396 1131.0
22.730608406 1143.0
22.752787416 1067.0
22.774966426 1144.0
22.797145436 1120.0
22.819324446 1080.0
22.841503456 1122.0
22.863682466 1117.0
22.885861476 1191.0
22.908040486 1103.0
22.930219496 1202.0
22.952398506 1103.0
22.974577516 1144.0
22.996756526 1053.0
23.018935536 1122.0
23.041114546 1147.0
23.063293556 1147.0
23.085472566 1095.0
23.107651576 1162.0
23.129830586 1197.0
23.152009596 1136.0
23.174188606 1189.0
23.196367616 1213.0
23.218546626 1123.0
23.240725636 1141.0
23.262904646 1140.0
23.285083656 1184.0
23.307262666 1186.0
23.329441676 1200.0
23.351620686 1189.0
23.373799696 1241.0
23.395978706 1205.0
23.418157716 1239.0
23.440336726 1260.0
23.462515736 1270.0
23.484694746 1282.0
23.506873756 1267.0
23.529052766 1301.0
23.551231776 1203.0
23.573410786 1307.0
23.595589796 1317.0
23.617768806 1304.0
23.639947816 1325.0
23.662126826 1363.0
23.684305836 1271.0
23.706484846 1374.0
23.728663856 1303.0
23.750842866 1346.0
23.773021876 1329.0
23.795200886 1382.0
23.817379896 1371.0
23.839558906 1391.0
23.861737916 1370.0
23.883916926 1460.0
23.906095936 1305.0
23.928274946 1363.0
23.950453956 1381.0
23.972632966 1389.0
23.994811976 1442.0
24.016990986 1385.0
24.039169996 1360.0
24.061349006 1373.0
24.083528016 1347.0
24.105707026 1317.0
24.127886036 1373.0
24.150065046 1352.0
24.172244056 1339.0
24.194423066 1344.0
24.216602076 1289.0
24.238781086 1270.0
24.260960096 1221.0
24.283139106 1279.0
24.305318116 1260.0
24.327497126 1347.0
24.349676136 1315.0
24.371855146 1259.0
24.394034156 1212.0
24.416213166 1247.0
24.438392176 1274.0
24.460571186 1239.0
24.482750196 1232.0
24.504929206 1302.0
24.527108216 1293.0
24.549287226 1225.0
24.571466236 1212.0
24.593645246 1200.0
24.615824256 1232.0
24.638003266 1205.0
24.660182276 1267.0
24.682361286 1210.0
24.704540296 1201.0
24.726719306 1312.0
24.748898316 1193.0
24.771077326 1247.0
24.793256336 1277.0
24.815435346 1182.0
24.837614356 1222.0
24.859793366 1250.0
24.881972376 1242.0
24.904151386 1261.0
24.926330396 1217.0
24.948509406 1234.0
24.970688416 1295.0
24.992867426 1321.0
25.015046436 1292.0
25.037225446 1269.0
25.059404456 1268.0
25.081583466 1298.0
25.103762476 1324.0
25.125941486 1283.0
25.148120496 1328.0
25.170299506 1251.0
25.192478516 1283.0
25.214657526 1306.0
25.236836536 1414.0
25.259015546 1322.0
25.281194556 1298.0
25.303373566 1336.0
25.325552576 1372.0
25.347731586 1373.0
25.369910596 1390.0
25.392089606 1376.0
25.414268616 1428.0
25.436447626 1358.0
25.458626636 1447.0
25.480805646 1417.0
25.502984656 1497.0
25.525163666 1482.0
25.547342676 1472.0
25.569521686 1492.0
25.591700696 1525.0
25.613879706 1538.0
25.636058716 1568.0
25.658237726 1553.0
25.680416736 1592.0
25.702595746 1604.0
25.724774756 1637.0
25.746953766 1635.0
25.769132776 1758.0
25.791311786 1679.0
25.813490796 1737.0
25.835669806 1754.0
25.857848816 1763.0
25.880027826 1797.0
25.902206836 1852.0
25.924385846 1860.0
25.946564856 1865.0
25.968743866 1790.0
25.990922876 1808.0
26.013101886 1883.0
26.035280896 1937.0
26.057459906 1938.0
26.079638916 1855.0
26.101817926 1829.0
26.123996936 1930.0
26.146175946 1904.0
26.168354956 1954.0
26.190533966 1894.0
26.212712976 1831.0
26.234891986 1875.0
26.257070996 1920.0
26.279250006 1880.0
26.301429016 1953.0
26.323608026 1898.0
26.345787036 1904.0
26.367966046 1827.0
26.390145056 1908.0
26.412324066 1851.0
26.434503076 1850.0
26.456682086 1888.0
26.478861096 1880.0
26.501040106 1801.0
26.523219116 1789.0
26.545398126 1862.0
26.567577136 1824.0
26.589756146 1808.0
26.611935156 1787.0
26.634114166 1855.0
26.656293176 1820.0
26.678472186 1797.0
26.700651196 1828.0
26.722830206 1754.0
26.745009216 1796.0
26.767188226 1749.0
26.789367236 1741.0
26.811546246 1676.0
26.833725256 1722.0
26.855904265 1764.0
26.878083275 1716.0
26.900262285 1666.0
26.922441295 1692.0
26.944620305 1627.0
26.966799315 1628.0
26.988978325 1638.0
27.011157335 1575.0
27.033336345 1580.0
27.055515355 1523.0
27.077694365 1479.0
27.099873375 1532.0
27.122052385 1515.0
27.144231395 1476.0
27.166410405 1524.0
27.188589415 1486.0
27.210768425 1468.0
27.232947435 1412.0
27.255126445 1447.0
27.277305455 1363.0
27.299484465 1388.0
27.321663475 1456.0
27.343842485 1347.0
27.366021495 1389.0
27.388200505 1360.0
27.410379515 1317.0
27.432558525 1417.0
27.454737535 1328.0
27.476916545 1320.0
27.499095555 1437.0
27.521274565 1364.0
27.543453575 1362.0
27.565632585 1301.0
27.587811595 1219.0
27.609990605 1234.0
27.632169615 1253.0
27.654348625 1275.0
27.676527635 1336.0
27.698706645 1270.0
27.720885655 1270.0
27.743064665 1272.0
27.765243675 1270.0
27.787422685 1241.0
27.809601695 1259.0
27.831780705 1313.0
27.853959715 1241.0
27.876138725 1187.0
27.898317735 1238.0
27.920496745 1194.0
27.942675755 1264.0
27.964854765 1229.0
27.987033775 1182.0
28.009212785 1279.0
28.031391795 1240.0
28.053570805 1148.0
28.075749815 1250.0
28.097928825 1236.0
28.120107835 1282.0
28.142286845 1299.0
28.164465855 1212.0
28.186644865 1302.0
28.208823875 1176.0
28.231002885 1171.0
28.253181895 1205.0
28.275360905 1200.0
28.297539915 1186.0
28.319718925 1265.0
28.341897935 1193.0
28.364076945 1175.0
28.386255955 1247.0
28.408434965 1246.0
28.430613975 1219.0
28.452792985 1130.0
28.474971995 1213.0
28.497151005 1210.0
28.519330015 1214.0
28.541509025 1184.0
28.563688035 1302.0
28.585867045 1209.0
28.608046055 1237.0
28.630225065 1263.0
28.652404075 1260.0
28.674583085 1245.0
28.696762095 1230.0
28.718941105 1253.0
28.741120115 1270.0
28.763299125 1228.0
28.785478135 1305.0
28.807657145 1253.0
28.829836155 1245.0
28.852015165 1277.0
28.874194175 1267.0
28.896373185 1316.0
28.918552195 1281.0
28.940731205 1292.0
28.962910215 1310.0
28.985089225 1287.0
29.007268235 1360.0
29.029447245 1441.0
29.051626255 1311.0
29.073805265 1405.0
29.095984275 1453.0
29.118163285 1389.0
29.140342295 1416.0
29.162521305 1446.0
29.184700315 1431.0
29.206879325 1462.0
29.229058335 1442.0
29.251237345 1476.0
29.273416355 1470.0
29.295595365 1477.0
29.317774375 1498.0
29.339953385 1454.0
29.362132395 1424.0
29.384311405 1434.0
29.406490415 1434.0
29.428669425 1475.0
29.450848435 1428.0
29.473027445 1366.0
29.495206455 1429.0
29.517385465 1463.0
29.539564475 1423.0
29.561743485 1441.0
29.583922495 1361.0
29.606101505 1363.0
29.628280515 1375.0
29.650459525 1400.0
29.672638535 1349.0
29.694817545 1360.0
29.716996555 1316.0
29.739175565 1301.0
29.761354575 1274.0
29.783533585 1253.0
29.805712595 1264.0
29.827891605 1207.0
29.850070615 1270.0
29.872249625 1152.0
29.894428635 1138.0
29.916607645 1132.0
29.938786655 1271.0
29.960965665 1148.0
29.983144675 1190.0
30.005323685 1145.0
30.027502695 1088.0
30.049681705 1165.0
30.071860715 1119.0
30.094039725 1156.0
30.116218735 1122.0
30.138397745 1043.0
30.160576755 1092.0
30.182755765 1025.0
30.204934775 1157.0
30.227113785 1116.0
30.249292795 1091.0
30.271471805 1094.0
30.293650815 1084.0
30.315829825 1054.0
30.338008835 1099.0
30.360187845 1067.0
30.382366855 1093.0
30.404545865 1083.0
30.426724875 1094.0
30.448903885 1114.0
30.471082895 1102.0
30.493261905 1106.0
30.515440915 1080.0
30.537619925 1147.0
30.559798935 1100.0
30.581977945 1071.0
30.604156955 1150.0
30.626335965 1156.0
30.648514975 1110.0
30.670693985 1142.0
30.692872995 1100.0
30.715052005 1118.0
30.737231015 1132.0
30.759410025 1145.0
30.781589035 1113.0
30.803768045 1147.0
30.825947055 1201.0
30.848126065 1192.0
30.870305075 1248.0
30.892484085 1189.0
30.914663095 1275.0
30.936842105 1218.0
30.959021115 1258.0
30.981200125 1315.0
31.003379135 1296.0
31.025558145 1264.0
31.047737155 1257.0
31.069916165 1279.0
31.092095175 1270.0
31.114274185 1299.0
31.136453195 1330.0
31.158632205 1315.0
31.180811215 1300.0
31.202990225 1249.0
31.225169235 1259.0
31.247348245 1334.0
31.269527255 1272.0
31.291706265 1304.0
31.313885275 1248.0
31.336064285 1256.0
31.358243295 1302.0
31.380422305 1203.0
31.402601315 1216.0
31.424780325 1154.0
31.446959335 1117.0
31.469138345 1136.0
31.491317355 1138.0
31.513496365 1159.0
31.535675375 1167.0
31.557854385 1095.0
31.580033395 1138.0
31.602212405 1058.0
31.624391415 1112.0
31.646570425 1091.0
31.668749435 1037.0
31.690928445 1110.0
31.713107455 1077.0
31.735286465 1036.0
31.757465475 1000.0
31.779644485 974.0
31.801823495 937.0
31.824002505 978.0
31.846181515 1017.0
31.868360525 1020.0
31.890539535 977.0
31.912718545 921.0
31.934897555 959.0
31.957076565 970.0
31.979255575 916.0
32.001434585 928.0
32.023613595 915.0
32.045792605 971.0
32.067971615 904.0
32.090150625 937.0
32.112329635 913.0
32.134508645 937.0
32.156687654 947.0
32.178866664 970.0
32.201045674 900.0
32.223224684 865.0
32.245403694 863.0
32.267582704 849.0
32.289761714 846.0
32.311940724 899.0
32.334119734 845.0
32.356298744 856.0
32.378477754 822.0
32.400656764 874.0
32.422835774 863.0
32.445014784 902.0
32.467193794 862.0
32.489372804 839.0
32.511551814 788.0
32.533730824 882.0
32.555909834 853.0
32.578088844 889.0
32.600267854 820.0
32.622446864 876.0
32.644625874 898.0
32.666804884 856.0
32.688983894 841.0
32.711162904 828.0
32.733341914 884.0
32.755520924 804.0
32.777699934 865.0
32.799878944 828.0
32.822057954 791.0
32.844236964 842.0
32.866415974 893.0
32.888594984 823.0
32.910773994 845.0
32.932953004 874.0
32.955132014 901.0
32.977311024 821.0
32.999490034 854.0
33.021669044 831.0
33.043848054 840.0
33.066027064 894.0
33.088206074 790.0
33.110385084 817.0
33.132564094 853.0
33.154743104 845.0
33.176922114 884.0
33.199101124 842.0
33.221280134 806.0
33.243459144 871.0
33.265638154 848.0
33.287817164 846.0
33.309996174 882.0
33.332175184 913.0
33.354354194 869.0
33.376533204 827.0
33.398712214 837.0
33.420891224 875.0
33.443070234 842.0
33.465249244 902.0
33.487428254 810.0
33.509607264 849.0
33.531786274 869.0
33.553965284 897.0
33.576144294 872.0
33.598323304 938.0
33.620502314 875.0
33.642681324 886.0
33.664860334 846.0
33.687039344 894.0
33.709218354 922.0
33.731397364 902.0
33.753576374 926.0
33.775755384 936.0
33.797934394 922.0
33.820113404 916.0
33.842292414 912.0
33.864471424 847.0
33.886650434 905.0
33.908829444 910.0
33.931008454 887.0
33.953187464 920.0
33.975366474 932.0
33.997545484 907.0
34.019724494 872.0
34.041903504 914.0
34.064082514 918.0
34.086261524 946.0
34.108440534 956.0
34.130619544 903.0
34.152798554 955.0
34.174977564 948.0
34.197156574 902.0
34.219335584 926.0
34.241514594 873.0
34.263693604 873.0
34.285872614 929.0
34.308051624 871.0
34.330230634 863.0
34.352409644 897.0
34.374588654 894.0
34.396767664 910.0
34.418946674 904.0
34.441125684 912.0
34.463304694 872.0
34.485483704 907.0
34.507662714 882.0
34.529841724 854.0
34.552020734 890.0
34.574199744 918.0
34.596378754 860.0
34.618557764 885.0
34.640736774 814.0
34.662915784 890.0
34.685094794 900.0
34.707273804 857.0
34.729452814 944.0
34.751631824 938.0
34.773810834 857.0
34.795989844 966.0
34.818168854 935.0
34.840347864 936.0
34.862526874 965.0
34.884705884 918.0
34.906884894 953.0
34.929063904 974.0
34.951242914 903.0
34.973421924 962.0
34.995600934 932.0
35.017779944 981.0
35.039958954 939.0
35.062137964 1053.0
35.084316974 1037.0
35.106495984 928.0
35.128674994 1021.0
35.150854004 1027.0
35.173033014 999.0
35.195212024 1067.0
35.217391034 972.0
35.239570044 1051.0
35.261749054 1053.0
35.283928064 1054.0
35.306107074 1018.0
35.328286084 1065.0
35.350465094 1083.0
35.372644104 1059.0
35.394823114 1085.0
35.417002124 1096.0
35.439181134 1115.0
35.461360144 1099.0
35.483539154 1187.0
35.505718164 1129.0
35.527897174 1124.0
35.550076184 1168.0
35.572255194 1163.0
35.594434204 1228.0
35.616613214 1149.0
35.638792224 1217.0
35.660971234 1190.0
35.683150244 1235.0
35.705329254 1142.0
35.727508264 1143.0
35.749687274 1162.0
35.771866284 1198.0
35.794045294 1189.0
35.816224304 1195.0
35.838403314 1174.0
35.860582324 1209.0
35.882761334 1143.0
35.904940344 1142.0
35.927119354 1107.0
35.949298364 1153.0
35.971477374 1084.0
35.993656384 1119.0
36.015835394 1161.0
36.038014404 1127.0
36.060193414 1083.0
36.082372424 1114.0
36.104551434 1093.0
36.126730444 1119.0
36.148909454 1064.0
36.171088464 1035.0
36.193267474 1057.0
36.215446484 1046.0
36.237625494 1034.0
36.259804504 960.0
36.281983514 1022.0
36.304162524 1040.0
36.326341534 998.0
36.348520544 966.0
36.370699554 1010.0
36.392878564 980.0
36.415057574 951.0
36.437236584 950.0
36.459415594 891.0
36.481594604 936.0
36.503773614 924.0
36.525952624 861.0
36.548131634 929.0
36.570310644 880.0
36.592489654 910.0
36.614668664 869.0
36.636847674 850.0
36.659026684 901.0
36.681205694 895.0
36.703384704 872.0
36.725563714 864.0
36.747742724 876.0
36.769921734 870.0
36.792100744 832.0
36.814279754 846.0
36.836458764 849.0
36.858637774 761.0
36.880816784 830.0
36.902995794 809.0
36.925174804 832.0
36.947353814 800.0
36.969532824 769.0
36.991711834 788.0
37.013890844 787.0
37.036069854 779.0
37.058248864 824.0
37.080427874 793.0
37.102606884 840.0
37.124785894 820.0
37.146964904 870.0
37.169143914 779.0
37.191322924 852.0
37.213501934 771.0
37.235680944 803.0
37.257859954 774.0
37.280038964 777.0
37.302217974 774.0
37.324396984 797.0
37.346575994 791.0
37.368755004 779.0
37.390934014 816.0
37.413113024 824.0
37.435292034 805.0
37.457471043 788.0
37.479650053 793.0
37.501829063 812.0
37.524008073 782.0
37.546187083 766.0
37.568366093 808.0
37.590545103 804.0
37.612724113 803.0
37.634903123 797.0
37.657082133 811.0
37.679261143 817.0
37.701440153 806.0
37.723619163 790.0
37.745798173 861.0
37.767977183 890.0
37.790156193 804.0
37.812335203 802.0
37.834514213 840.0
37.856693223 798.0
37.878872233 829.0
37.901051243 883.0
37.923230253 850.0
37.945409263 834.0
37.967588273 843.0
37.989767283 861.0
38.011946293 815.0
38.034125303 861.0
38.056304313 813.0
38.078483323 809.0
38.100662333 890.0
38.122841343 846.0
38.145020353 842.0
38.167199363 825.0
38.189378373 858.0
38.211557383 897.0
38.233736393 825.0
38.255915403 851.0
38.278094413 895.0
38.300273423 825.0
38.322452433 795.0
38.344631443 825.0
38.366810453 789.0
38.388989463 837.0
38.411168473 834.0
38.433347483 823.0
38.455526493 765.0
38.477705503 750.0
38.499884513 802.0
38.522063523 820.0
38.544242533 784.0
38.566421543 791.0
38.588600553 746.0
38.610779563 807.0
38.632958573 800.0
38.655137583 793.0
38.677316593 788.0
38.699495603 792.0
38.721674613 739.0
38.743853623 708.0
38.766032633 806.0
38.788211643 728.0
38.810390653 747.0
38.832569663 731.0
38.854748673 763.0
38.876927683 733.0
38.899106693 750.0
38.921285703 765.0
38.943464713 737.0
38.965643723 759.0
38.987822733 777.0
39.010001743 764.0
39.032180753 757.0
39.054359763 756.0
39.076538773 730.0
39.098717783 718.0
39.120896793 790.0
39.143075803 734.0
39.165254813 712.0
39.187433823 766.0
39.209612833 807.0
39.231791843 743.0
39.253970853 796.0
39.276149863 759.0
39.298328873 816.0
39.320507883 713.0
39.342686893 713.0
39.364865903 798.0
39.387044913 761.0
39.409223923 754.0
39.431402933 752.0
39.453581943 808.0
39.475760953 761.0
39.497939963 736.0
39.520118973 789.0
39.542297983 810.0
39.564476993 819.0
39.586656003 767.0
39.608835013 834.0
39.631014023 812.0
39.653193033 787.0
39.675372043 784.0
39.697551053 788.0
39.719730063 802.0
39.741909073 830.0
39.764088083 772.0
39.786267093 744.0
39.808446103 767.0
39.830625113 808.0
39.852804123 786.0
39.874983133 778.0
39.897162143 791.0
39.919341153 755.0
39.941520163 775.0
39.963699173 778.0
39.985878183 785.0
40.008057193 739.0
40.030236203 778.0
40.052415213 770.0
40.074594223 781.0
40.096773233 803.0
40.118952243 807.0
40.141131253 799.0
40.163310263 803.0
40.185489273 749.0
40.207668283 756.0
40.229847293 766.0
40.252026303 755.0
40.274205313 762.0
40.296384323 771.0
40.318563333 728.0
40.340742343 773.0
40.362921353 696.0
40.385100363 765.0
40.407279373 715.0
40.429458383 680.0
40.451637393 708.0
40.473816403 692.0
40.495995413 724.0
40.518174423 774.0
40.540353433 685.0
40.562532443 718.0
40.584711453 703.0
40.606890463 695.0
40.629069473 693.0
40.651248483 642.0
40.673427493 736.0
40.695606503 650.0
40.717785513 678.0
40.739964523 690.0
40.762143533 676.0
40.784322543 629.0
40.806501553 677.0
40.828680563 668.0
40.850859573 674.0
40.873038583 581.0
40.895217593 653.0
40.917396603 676.0
40.939575613 651.0
40.961754623 642.0
40.983933633 676.0
41.006112643 662.0
41.028291653 662.0
41.050470663 623.0
41.072649673 629.0
41.094828683 688.0
41.117007693 593.0
41.139186703 620.0
41.161365713 623.0
41.183544723 691.0
41.205723733 652.0
41.227902743 599.0
41.250081753 627.0
41.272260763 625.0
41.294439773 663.0
41.316618783 667.0
41.338797793 624.0
41.360976803 652.0
41.383155813 631.0
41.405334823 664.0
41.427513833 691.0
41.449692843 664.0
41.471871853 625.0
41.494050863 636.0
41.516229873 672.0
41.538408883 647.0
41.560587893 614.0
41.582766903 659.0
41.604945913 611.0
41.627124923 613.0
41.649303933 609.0
41.671482943 611.0
41.693661953 623.0
41.715840963 668.0
41.738019973 680.0
41.760198983 666.0
41.782377993 645.0
41.804557003 638.0
41.826736013 640.0
41.848915023 658.0
41.871094033 665.0
41.893273043 671.0
41.915452053 642.0
41.937631063 687.0
41.959810073 620.0
41.981989083 604.0
42.004168093 689.0
42.026347103 627.0
42.048526113 649.0
42.070705123 671.0
42.092884133 658.0
42.115063143 628.0
42.137242153 644.0
42.159421163 662.0
42.181600173 645.0
42.203779183 675.0
42.225958193 632.0
42.248137203 646.0
42.270316213 605.0
42.292495223 643.0
42.314674233 646.0
42.336853243 655.0
42.359032253 643.0
42.381211263 589.0
42.403390273 618.0
42.425569283 650.0
42.447748293 640.0
42.469927303 694.0
42.492106313 669.0
42.514285323 707.0
42.536464333 652.0
42.558643343 661.0
42.580822353 637.0
42.603001363 661.0
42.625180373 614.0
42.647359383 681.0
42.669538393 688.0
42.691717403 629.0
42.713896413 682.0
42.736075423 693.0
42.758254432 671.0
42.780433442 701.0
42.802612452 704.0
42.824791462 708.0
42.846970472 692.0
42.869149482 735.0
42.891328492 702.0
42.913507502 713.0
42.935686512 697.0
42.957865522 691.0
42.980044532 731.0
43.002223542 701.0
43.024402552 703.0
43.046581562 710.0
43.068760572 738.0
43.090939582 713.0
43.113118592 700.0
43.135297602 763.0
43.157476612 720.0
43.179655622 701.0
43.201834632 716.0
43.224013642 697.0
43.246192652 686.0
43.268371662 701.0
43.290550672 795.0
43.312729682 736.0
43.334908692 758.0
43.357087702 707.0
43.379266712 717.0
43.401445722 761.0
43.423624732 736.0
43.445803742 777.0
43.467982752 766.0
43.490161762 776.0
43.512340772 804.0
43.534519782 737.0
43.556698792 758.0
43.578877802 777.0
43.601056812 715.0
43.623235822 757.0
43.645414832 711.0
43.667593842 729.0
43.689772852 745.0
43.711951862 762.0
43.734130872 743.0
43.756309882 723.0
43.778488892 753.0
43.800667902 742.0
43.822846912 675.0
43.845025922 717.0
43.867204932 733.0
43.889383942 701.0
43.911562952 723.0
43.933741962 701.0
43.955920972 769.0
43.978099982 686.0
44.000278992 690.0
44.022458002 676.0
44.044637012 728.0
44.066816022 719.0
44.088995032 704.0
44.111174042 652.0
44.133353052 667.0
44.155532062 701.0
44.177711072 634.0
44.199890082 619.0
44.222069092 667.0
44.244248102 642.0
44.266427112 679.0
44.288606122 691.0
44.310785132 647.0
44.332964142 640.0
44.355143152 602.0
44.377322162 661.0
44.399501172 626.0
44.421680182 661.0
44.443859192 651.0
44.466038202 651.0
44.488217212 611.0
44.510396222 684.0
44.532575232 625.0
44.554754242 636.0
44.576933252 659.0
44.599112262 666.0
44.621291272 623.0
44.643470282 614.0
44.665649292 641.0
44.687828302 592.0
44.710007312 647.0
44.732186322 623.0
44.754365332 634.0
44.776544342 630.0
44.798723352 611.0
44.820902362 656.0
44.843081372 642.0
44.865260382 643.0
44.887439392 638.0
44.909618402 649.0
44.931797412 650.0
44.953976422 616.0
44.976155432 670.0
44.998334442 672.0
45.020513452 627.0
45.042692462 673.0
45.064871472 660.0
45.087050482 654.0
45.109229492 646.0
45.131408502 606.0
45.153587512 658.0
45.175766522 630.0
45.197945532 692.0
45.220124542 695.0
45.242303552 655.0
45.264482562 663.0
45.286661572 671.0
45.308840582 680.0
45.331019592 670.0
45.353198602 693.0
45.375377612 709.0
45.397556622 692.0
45.419735632 678.0
45.441914642 713.0
45.464093652 680.0
45.486272662 670.0
45.508451672 710.0
45.530630682 688.0
45.552809692 743.0
45.574988702 655.0
45.597167712 706.0
45.619346722 671.0
45.641525732 718.0
45.663704742 712.0
45.685883752 673.0
45.708062762 655.0
45.730241772 707.0
45.752420782 728.0
45.774599792 692.0
45.796778802 677.0
45.818957812 723.0
45.841136822 679.0
45.863315832 696.0
45.885494842 668.0
45.907673852 684.0
45.929852862 677.0
45.952031872 664.0
45.974210882 642.0
45.996389892 689.0
46.018568902 675.0
46.040747912 699.0
46.062926922 700.0
46.085105932 677.0
46.107284942 699.0
46.129463952 650.0
46.151642962 650.0
46.173821972 678.0
46.196000982 664.0
46.218179992 664.0
46.240359002 661.0
46.262538012 641.0
46.284717022 691.0
46.306896032 678.0
46.329075042 657.0
46.351254052 694.0
46.373433062 690.0
46.395612072 692.0
46.417791082 650.0
46.439970092 663.0
46.462149102 644.0
46.484328112 632.0
46.506507122 685.0
46.528686132 676.0
46.550865142 706.0
46.573044152 687.0
46.595223162 695.0
46.617402172 677.0
46.639581182 698.0
46.661760192 705.0
46.683939202 633.0
46.706118212 650.0
46.728297222 679.0
46.750476232 634.0
46.772655242 690.0
46.794834252 686.0
46.817013262 674.0
46.839192272 642.0
46.861371282 688.0
46.883550292 685.0
46.905729302 635.0
46.927908312 665.0
46.950087322 650.0
46.972266332 663.0
46.994445342 606.0
47.016624352 611.0
47.038803362 671.0
47.060982372 666.0
47.083161382 699.0
47.105340392 653.0
47.127519402 660.0
47.149698412 714.0
47.171877422 645.0
47.194056432 648.0
47.216235442 616.0
47.238414452 645.0
47.260593462 645.0
47.282772472 615.0
47.304951482 606.0
47.327130492 636.0
47.349309502 630.0
47.371488512 591.0
47.393667522 614.0
47.415846532 592.0
47.438025542 613.0
47.460204552 604.0
47.482383562 604.0
47.504562572 599.0
47.526741582 607.0
47.548920592 564.0
47.571099602 623.0
47.593278612 581.0
47.615457622 541.0
47.637636632 566.0
47.659815642 597.0
47.681994652 581.0
47.704173662 580.0
47.726352672 563.0
47.748531682 546.0
47.770710692 536.0
47.792889702 556.0
47.815068712 560.0
47.837247722 543.0
47.859426732 541.0
47.881605742 563.0
47.903784752 502.0
47.925963762 532.0
47.948142772 514.0
47.970321782 530.0
47.992500792 530.0
48.014679802 480.0
48.036858812 489.0
48.059037821 539.0
48.081216831 532.0
48.103395841 506.0
48.125574851 493.0
48.147753861 552.0
48.169932871 481.0
48.192111881 520.0
48.214290891 503.0
48.236469901 555.0
48.258648911 524.0
48.280827921 516.0
48.303006931 516.0
48.325185941 513.0
48.347364951 510.0
48.369543961 534.0
48.391722971 516.0
48.413901981 541.0
48.436080991 559.0
48.458260001 533.0
48.480439011 535.0
48.502618021 565.0
48.524797031 497.0
48.546976041 503.0
48.569155051 477.0
48.591334061 517.0
48.613513071 536.0
48.635692081 535.0
48.657871091 523.0
48.680050101 498.0
48.702229111 548.0
48.724408121 490.0
48.746587131 506.0
48.768766141 542.0
48.790945151 520.0
48.813124161 506.0
48.835303171 481.0
48.857482181 498.0
48.879661191 528.0
48.901840201 500.0
48.924019211 488.0
48.946198221 509.0
48.968377231 567.0
48.990556241 508.0
49.012735251 510.0
49.034914261 516.0
49.057093271 526.0
49.079272281 521.0
49.101451291 538.0
49.123630301 513.0
49.145809311 492.0
49.167988321 487.0
49.190167331 525.0
49.212346341 507.0
49.234525351 482.0
49.256704361 463.0
49.278883371 497.0
49.301062381 506.0
49.323241391 526.0
49.345420401 506.0
49.367599411 488.0
49.389778421 522.0
49.411957431 540.0
49.434136441 575.0
49.456315451 482.0
49.478494461 528.0
49.500673471 553.0
49.522852481 503.0
49.545031491 540.0
49.567210501 512.0
49.589389511 497.0
49.611568521 500.0
49.633747531 500.0
49.655926541 511.0
49.678105551 467.0
49.700284561 524.0
49.722463571 517.0
49.744642581 490.0
49.766821591 510.0
49.789000601 542.0
49.811179611 513.0
49.833358621 496.0
49.855537631 538.0
49.877716641 558.0
49.899895651 523.0
49.922074661 558.0
49.944253671 523.0
49.966432681 543.0
49.988611691 569.0
50.010790701 523.0
50.032969711 538.0
50.055148721 540.0
50.077327731 504.0
50.099506741 534.0
50.121685751 551.0
50.143864761 553.0
50.166043771 515.0
50.188222781 573.0
50.210401791 558.0
50.232580801 565.0
50.254759811 525.0
50.276938821 549.0
50.299117831 561.0
50.321296841 533.0
50.343475851 564.0
50.365654861 534.0
50.387833871 511.0
50.410012881 506.0
50.432191891 547.0
50.454370901 544.0
50.476549911 510.0
50.498728921 550.0
50.520907931 505.0
50.543086941 524.0
50.565265951 535.0
50.587444961 533.0
50.609623971 533.0
50.631802981 507.0
50.653981991 550.0
50.676161001 509.0
50.698340011 544.0
50.720519021 515.0
50.742698031 509.0
50.764877041 476.0
50.787056051 498.0
50.809235061 525.0
50.831414071 489.0
50.853593081 517.0
50.875772091 524.0
50.897951101 541.0
50.920130111 529.0
50.942309121 514.0
50.964488131 540.0
50.986667141 514.0
51.008846151 510.0
51.031025161 506.0
51.053204171 471.0
51.075383181 487.0
51.097562191 475.0
51.119741201 509.0
51.141920211 489.0
51.164099221 480.0
51.186278231 460.0
51.208457241 484.0
51.230636251 494.0
51.252815261 469.0
51.274994271 488.0
51.297173281 488.0
51.319352291 485.0
51.341531301 497.0
51.363710311 524.0
51.385889321 483.0
51.408068331 472.0
51.430247341 501.0
51.452426351 468.0
51.474605361 498.0
51.496784371 484.0
51.518963381 488.0
51.541142391 437.0
51.563321401 474.0
51.585500411 500.0
51.607679421 470.0
51.629858431 519.0
51.652037441 483.0
51.674216451 472.0
51.696395461 478.0
51.718574471 463.0
51.740753481 451.0
51.762932491 479.0
51.785111501 469.0
51.807290511 498.0
51.829469521 528.0
51.851648531 454.0
51.873827541 500.0
51.896006551 492.0
51.918185561 519.0
51.940364571 510.0
51.962543581 549.0
51.984722591 508.0
52.006901601 481.0
52.029080611 503.0
52.051259621 473.0
52.073438631 504.0
52.095617641 479.0
52.117796651 478.0
52.139975661 516.0
52.162154671 503.0
52.184333681 490.0
52.206512691 508.0
52.228691701 465.0
52.250870711 465.0
52.273049721 498.0
52.295228731 503.0
52.317407741 487.0
52.339586751 525.0
52.361765761 477.0
52.383944771 468.0
52.406123781 518.0
52.428302791 505.0
52.450481801 499.0
52.472660811 450.0
52.494839821 468.0
52.517018831 462.0
52.539197841 476.0
52.561376851 502.0
52.583555861 493.0
52.605734871 459.0
52.627913881 457.0
52.650092891 444.0
52.672271901 480.0
52.694450911 469.0
52.716629921 509.0
52.738808931 493.0
52.760987941 480.0
52.783166951 488.0
52.805345961 465.0
52.827524971 492.0
52.849703981 463.0
52.871882991 493.0
52.894062001 488.0
52.916241011 491.0
52.938420021 459.0
52.960599031 497.0
52.982778041 491.0
53.004957051 509.0
53.027136061 501.0
53.049315071 468.0
53.071494081 465.0
53.093673091 487.0
53.115852101 479.0
53.138031111 476.0
53.160210121 494.0
53.182389131 510.0
53.204568141 500.0
53.226747151 483.0
53.248926161 466.0
53.271105171 506.0
53.293284181 518.0
53.315463191 454.0
53.337642201 483.0
53.359821210 519.0
53.382000220 470.0
53.404179230 482.0
53.426358240 448.0
53.448537250 462.0
53.470716260 469.0
53.492895270 480.0
53.515074280 477.0
53.537253290 478.0
53.559432300 451.0
53.581611310 466.0
53.603790320 510.0
53.625969330 531.0
53.648148340 473.0
53.670327350 469.0
53.692506360 436.0
53.714685370 484.0
53.736864380 453.0
53.759043390 488.0
53.781222400 436.0
53.803401410 449.0
53.825580420 446.0
53.847759430 469.0
53.869938440 446.0
53.892117450 439.0
53.914296460 506.0
53.936475470 490.0
53.958654480 435.0
53.980833490 461.0
54.003012500 458.0
54.025191510 446.0
54.047370520 411.0
54.069549530 462.0
54.091728540 441.0
54.113907550 437.0
54.136086560 454.0
54.158265570 449.0
54.180444580 435.0
54.202623590 441.0
54.224802600 438.0
54.246981610 441.0
54.269160620 455.0
54.291339630 459.0
54.313518640 433.0
54.335697650 435.0
54.357876660 497.0
54.380055670 412.0
54.402234680 470.0
54.424413690 432.0
54.446592700 417.0
54.468771710 434.0
54.490950720 438.0
54.513129730 422.0
54.535308740 455.0
54.557487750 407.0
54.579666760 468.0
54.601845770 452.0
54.624024780 409.0
54.646203790 424.0
54.668382800 455.0
54.690561810 462.0
54.712740820 475.0
54.734919830 431.0
54.757098840 454.0
54.779277850 422.0
54.801456860 449.0
54.823635870 392.0
54.845814880 461.0
54.867993890 438.0
54.890172900 464.0
54.912351910 417.0
54.934530920 443.0
54.956709930 392.0
54.978888940 430.0
55.001067950 466.0
55.023246960 446.0
55.045425970 425.0
55.067604980 438.0
55.089783990 428.0
55.111963000 450.0
55.134142010 452.0
55.156321020 458.0
55.178500030 451.0
55.200679040 465.0
55.222858050 428.0
55.245037060 440.0
55.267216070 458.0
55.289395080 418.0
55.311574090 467.0
55.333753100 437.0
55.355932110 456.0
55.378111120 433.0
55.400290130 445.0
55.422469140 406.0
55.444648150 453.0
55.466827160 438.0
55.489006170 452.0
55.511185180 478.0
55.533364190 442.0
55.555543200 454.0
55.577722210 477.0
55.599901220 468.0
55.622080230 466.0
55.644259240 474.0
55.666438250 500.0
55.688617260 469.0
55.710796270 453.0
55.732975280 466.0
55.755154290 452.0
55.777333300 457.0
55.799512310 459.0
55.821691320 399.0
55.843870330 471.0
55.866049340 450.0
55.888228350 440.0
55.910407360 446.0
55.932586370 452.0
55.954765380 439.0
55.976944390 437.0
55.999123400 462.0
