2.991289510 641.0
3.013468520 640.0
3.035647530 579.0
3.057826540 628.0
3.080005550 586.0
3.102184560 602.0
3.124363570 601.0
3.146542580 641.0
3.168721590 678.0
3.190900600 653.0
3.213079610 674.0
3.235258620 664.0
3.257437630 706.0
3.279616640 700.0
3.301795650 673.0
3.323974660 754.0
3.346153670 719.0
3.368332680 748.0
3.390511690 782.0
3.412690700 802.0
3.434869710 821.0
3.457048720 812.0
3.479227730 882.0
3.501406740 872.0
3.523585750 837.0
3.545764760 904.0
3.567943770 920.0
3.590122780 968.0
3.612301790 1004.0
3.634480800 949.0
3.656659810 1039.0
3.678838820 1039.0
3.701017830 1077.0
3.723196840 1090.0
3.745375850 1049.0
3.767554860 1083.0
3.789733870 1160.0
3.811912880 1162.0
3.834091890 1180.0
3.856270900 1221.0
3.878449910 1201.0
3.900628920 1264.0
3.922807930 1344.0
3.944986940 1312.0
3.967165950 1354.0
3.989344960 1353.0
4.011523970 1367.0
4.033702980 1382.0
4.055881990 1425.0
4.078061000 1331.0
4.100240010 1429.0
4.122419020 1390.0
4.144598030 1425.0
4.166777040 1405.0
4.188956050 1459.0
4.211135060 1484.0
4.233314070 1505.0
4.255493080 1515.0
4.277672090 1497.0
4.299851100 1488.0
4.322030110 1525.0
4.344209120 1520.0
4.366388130 1495.0
4.388567140 1470.0
4.410746150 1495.0
4.432925160 1385.0
4.455104170 1421.0
4.477283180 1487.0
4.499462190 1474.0
4.521641200 1498.0
4.543820210 1507.0
4.565999220 1403.0
4.588178230 1387.0
4.610357240 1426.0
4.632536250 1413.0
4.654715260 1479.0
4.676894270 1433.0
4.699073280 1470.0
4.721252290 1411.0
4.743431300 1457.0
4.765610310 1420.0
4.787789320 1493.0
4.809968330 1412.0
4.832147340 1373.0
4.854326350 1375.0
4.876505360 1422.0
4.898684370 1330.0
4.920863380 1445.0
4.943042390 1440.0
4.965221400 1409.0
4.987400410 1396.0
5.009579420 1368.0
5.031758430 1363.0
5.053937440 1400.0
5.076116450 1344.0
5.098295460 1379.0
5.120474470 1317.0
5.142653480 1349.0
5.164832490 1477.0
5.187011500 1398.0
5.209190510 1361.0
5.231369520 1353.0
5.253548530 1332.0
5.275727540 1350.0
5.297906550 1372.0
5.320085560 1397.0
5.342264570 1399.0
5.364443580 1384.0
5.386622590 1339.0
5.408801600 1445.0
5.430980610 1419.0
5.453159620 1335.0
5.475338630 1318.0
5.497517640 1368.0
5.519696650 1370.0
5.541875660 1415.0
5.564054670 1381.0
5.586233680 1399.0
5.608412690 1362.0
5.630591700 1347.0
5.652770709 1330.0
5.674949719 1447.0
5.697128729 1300.0
5.719307739 1395.0
5.741486749 1418.0
5.763665759 1410.0
5.785844769 1354.0
5.808023779 1382.0
5.830202789 1400.0
5.852381799 1424.0
5.874560809 1344.0
5.896739819 1425.0
5.918918829 1371.0
5.941097839 1368.0
5.963276849 1427.0
5.985455859 1450.0
6.007634869 1413.0
6.029813879 1344.0
6.051992889 1397.0
6.074171899 1437.0
6.096350909 1453.0
6.118529919 1485.0
6.140708929 1466.0
6.162887939 1360.0
6.185066949 1414.0
6.207245959 1523.0
6.229424969 1494.0
6.251603979 1474.0
6.273782989 1474.0
6.295961999 1479.0
6.318141009 1422.0
6.340320019 1484.0
6.362499029 1433.0
6.384678039 1470.0
6.406857049 1494.0
6.429036059 1441.0
6.451215069 1472.0
6.473394079 1505.0
6.495573089 1578.0
6.517752099 1563.0
6.539931109 1467.0
6.562110119 1487.0
6.584289129 1489.0
6.606468139 1515.0
6.628647149 1518.0
6.650826159 1520.0
6.673005169 1568.0
6.695184179 1475.0
6.717363189 1574.0
6.739542199 1526.0
6.761721209 1607.0
6.783900219 1586.0
6.806079229 1620.0
6.828258239 1648.0
6.850437249 1544.0
6.872616259 1620.0
6.894795269 1575.0
6.916974279 1644.0
6.939153289 1589.0
6.961332299 1684.0
6.983511309 1630.0
7.005690319 1655.0
7.027869329 1671.0
7.050048339 1711.0
7.072227349 1743.0
7.094406359 1726.0
7.116585369 1622.0
7.138764379 1689.0
7.160943389 1648.0
7.183122399 1773.0
7.205301409 1762.0
7.227480419 1694.0
7.249659429 1802.0
7.271838439 1775.0
7.294017449 1778.0
7.316196459 1817.0
7.338375469 1764.0
7.360554479 1837.0
7.382733489 1778.0
7.404912499 1813.0
7.427091509 1773.0
7.449270519 1752.0
7.471449529 1926.0
7.493628539 1865.0
7.515807549 1863.0
7.537986559 1873.0
7.560165569 1898.0
7.582344579 1956.0
7.604523589 1909.0
7.626702599 1892.0
7.648881609 1893.0
7.671060619 1899.0
7.693239629 1956.0
7.715418639 1856.0
7.737597649 1999.0
7.759776659 1985.0
7.781955669 1986.0
7.804134679 1997.0
7.826313689 1937.0
7.848492699 1997.0
7.870671709 2059.0
7.892850719 2011.0
7.915029729 2024.0
7.937208739 2141.0
7.959387749 2076.0
7.981566759 2201.0
8.003745769 2177.0
8.025924779 2121.0
8.048103789 2145.0
8.070282799 2105.0
8.092461809 2234.0
8.114640819 2198.0
8.136819829 2226.0
8.158998839 2186.0
8.181177849 2246.0
8.203356859 2242.0
8.225535869 2296.0
8.247714879 2334.0
8.269893889 2326.0
8.292072899 2296.0
8.314251909 2393.0
8.336430919 2407.0
8.358609929 2367.0
8.380788939 2354.0
8.402967949 2463.0
8.425146959 2580.0
8.447325969 2563.0
8.469504979 2599.0
8.491683989 2625.0
8.513862999 2619.0
8.536042009 2700.0
8.558221019 2739.0
8.580400029 2781.0
8.602579039 2732.0
8.624758049 2846.0
8.646937059 2796.0
8.669116069 3001.0
8.691295079 2940.0
8.713474089 2955.0
8.735653099 3150.0
8.757832109 3174.0
8.780011119 3239.0
8.802190129 3255.0
8.824369139 3306.0
8.846548149 3261.0
8.868727159 3323.0
8.890906169 3381.0
8.913085179 3505.0
8.935264189 3649.0
8.957443199 3548.0
8.979622209 3714.0
9.001801219 3856.0
9.023980229 3787.0
9.046159239 3995.0
9.068338249 3939.0
9.090517259 4135.0
9.112696269 4094.0
9.134875279 4157.0
9.157054289 4413.0
9.179233299 4359.0
9.201412309 4435.0
9.223591319 4535.0
9.245770329 4532.0
9.267949339 4728.0
9.290128349 4762.0
9.312307359 4746.0
9.334486369 5087.0
9.356665379 5051.0
9.378844389 5112.0
9.401023399 5376.0
9.423202409 5421.0
9.445381419 5515.0
9.467560429 5692.0
9.489739439 5838.0
9.511918449 5853.0
9.534097459 5983.0
9.556276469 6141.0
9.578455479 6242.0
9.600634489 6307.0
9.622813499 6320.0
9.644992509 6400.0
9.667171519 6577.0
9.689350529 6647.0
9.711529539 6636.0
9.733708549 7012.0
9.755887559 7058.0
9.778066569 6981.0
9.800245579 7288.0
9.822424589 7269.0
9.844603599 7409.0
9.866782609 7395.0
9.888961619 7459.0
9.911140629 7391.0
9.933319639 7810.0
9.955498649 7775.0
9.977677659 7814.0
9.999856669 7866.0
10.022035679 8030.0
10.044214689 7996.0
10.066393699 8072.0
10.088572709 8278.0
10.110751719 8115.0
10.132930729 8158.0
10.155109739 8060.0
10.177288749 8236.0
10.199467759 8256.0
10.221646769 8327.0
10.243825779 8249.0
10.266004789 8262.0
10.288183799 8298.0
10.310362809 8473.0
10.332541819 8257.0
10.354720829 8208.0
10.376899839 8255.0
10.399078849 8162.0
10.421257859 8118.0
10.443436869 8198.0
10.465615879 8129.0
10.487794889 8122.0
10.509973899 7899.0
10.532152909 7913.0
10.554331919 7763.0
10.576510929 7801.0
10.598689939 7638.0
10.620868949 7518.0
10.643047959 7505.0
10.665226969 7322.0
10.687405979 7473.0
10.709584989 7287.0
10.731763999 7151.0
10.753943009 7035.0
10.776122019 7052.0
10.798301029 6861.0
10.820480039 6996.0
10.842659049 6734.0
10.864838059 6559.0
10.887017069 6650.0
10.909196079 6536.0
10.931375089 6421.0
10.953554098 6390.0
10.975733108 6319.0
10.997912118 6085.0
11.020091128 6103.0
11.042270138 6082.0
11.064449148 5824.0
11.086628158 5804.0
11.108807168 5626.0
11.130986178 5608.0
11.153165188 5558.0
11.175344198 5337.0
11.197523208 5327.0
11.219702218 5283.0
11.241881228 5208.0
11.264060238 5200.0
11.286239248 5110.0
11.308418258 4979.0
11.330597268 4942.0
11.352776278 4942.0
11.374955288 4861.0
11.397134298 4715.0
11.419313308 4815.0
11.441492318 4666.0
11.463671328 4612.0
11.485850338 4423.0
11.508029348 4581.0
11.530208358 4478.0
11.552387368 4643.0
11.574566378 4319.0
11.596745388 4351.0
11.618924398 4247.0
11.641103408 4123.0
11.663282418 4257.0
11.685461428 4190.0
11.707640438 4095.0
11.729819448 4020.0
11.751998458 4066.0
11.774177468 4061.0
11.796356478 3936.0
11.818535488 3874.0
11.840714498 3895.0
11.862893508 3794.0
11.885072518 3831.0
11.907251528 3787.0
11.929430538 3670.0
11.951609548 3745.0
11.973788558 3500.0
11.995967568 3605.0
12.018146578 3544.0
12.040325588 3485.0
12.062504598 3371.0
12.084683608 3533.0
12.106862618 3285.0
12.129041628 3293.0
12.151220638 3216.0
12.173399648 3132.0
12.195578658 3266.0
12.217757668 3166.0
12.239936678 3022.0
12.262115688 3065.0
12.284294698 2927.0
12.306473708 2916.0
12.328652718 2913.0
12.350831728 2920.0
12.373010738 2767.0
12.395189748 2781.0
12.417368758 2715.0
12.439547768 2734.0
12.461726778 2636.0
12.483905788 2604.0
12.506084798 2527.0
12.528263808 2579.0
12.550442818 2399.0
12.572621828 2332.0
12.594800838 2365.0
12.616979848 2317.0
12.639158858 2305.0
12.661337868 2252.0
12.683516878 2188.0
12.705695888 2203.0
12.727874898 2134.0
12.750053908 2101.0
12.772232918 2101.0
12.794411928 2074.0
12.816590938 2082.0
12.838769948 2025.0
12.860948958 1959.0
12.883127968 1946.0
12.905306978 1991.0
12.927485988 1879.0
12.949664998 1821.0
12.971844008 1848.0
12.994023018 1786.0
13.016202028 1767.0
13.038381038 1779.0
13.060560048 1729.0
13.082739058 1850.0
13.104918068 1663.0
13.127097078 1704.0
13.149276088 1753.0
13.171455098 1702.0
13.193634108 1733.0
13.215813118 1704.0
13.237992128 1531.0
13.260171138 1557.0
13.282350148 1586.0
13.304529158 1538.0
13.326708168 1559.0
13.348887178 1568.0
13.371066188 1556.0
13.393245198 1561.0
13.415424208 1517.0
13.437603218 1536.0
13.459782228 1501.0
13.481961238 1441.0
13.504140248 1463.0
13.526319258 1401.0
13.548498268 1431.0
13.570677278 1412.0
13.592856288 1497.0
13.615035298 1441.0
13.637214308 1364.0
13.659393318 1368.0
13.681572328 1446.0
13.703751338 1389.0
13.725930348 1410.0
13.748109358 1436.0
13.770288368 1394.0
13.792467378 1398.0
13.814646388 1420.0
13.836825398 1450.0
13.859004408 1419.0
13.881183418 1360.0
13.903362428 1373.0
13.925541438 1408.0
13.947720448 1398.0
13.969899458 1441.0
13.992078468 1372.0
14.014257478 1423.0
14.036436488 1458.0
14.058615498 1486.0
14.080794508 1479.0
14.102973518 1414.0
14.125152528 1501.0
14.147331538 1375.0
14.169510548 1396.0
14.191689558 1414.0
14.213868568 1464.0
14.236047578 1438.0
14.258226588 1497.0
14.280405598 1443.0
14.302584608 1538.0
14.324763618 1446.0
14.346942628 1500.0
14.369121638 1436.0
14.391300648 1443.0
14.413479658 1508.0
14.435658668 1552.0
14.457837678 1489.0
14.480016688 1583.0
14.502195698 1505.0
14.524374708 1516.0
14.546553718 1494.0
14.568732728 1510.0
14.590911738 1547.0
14.613090748 1620.0
14.635269758 1612.0
14.657448768 1604.0
14.679627778 1603.0
14.701806788 1606.0
14.723985798 1579.0
14.746164808 1622.0
14.768343818 1657.0
14.790522828 1666.0
14.812701838 1686.0
14.834880848 1767.0
14.857059858 1751.0
14.879238868 1749.0
14.901417878 1731.0
14.923596888 1856.0
14.945775898 1736.0
14.967954908 1732.0
14.990133918 1827.0
15.012312928 1822.0
15.034491938 1819.0
15.056670948 1761.0
15.078849958 1913.0
15.101028968 1858.0
15.123207978 1833.0
15.145386988 1942.0
15.167565998 1973.0
15.189745008 1999.0
15.211924018 1985.0
15.234103028 2040.0
15.256282038 1908.0
15.278461048 2002.0
15.300640058 1997.0
15.322819068 2080.0
15.344998078 2059.0
15.367177088 2136.0
15.389356098 2178.0
15.411535108 2223.0
15.433714118 2233.0
15.455893128 2180.0
15.478072138 2237.0
15.500251148 2284.0
15.522430158 2342.0
15.544609168 2242.0
15.566788178 2428.0
15.588967188 2380.0
15.611146198 2437.0
15.633325208 2456.0
15.655504218 2546.0
15.677683228 2544.0
15.699862238 2632.0
15.722041248 2714.0
15.744220258 2689.0
15.766399268 2672.0
15.788578278 2789.0
15.810757288 2869.0
15.832936298 2909.0
15.855115308 2840.0
15.877294318 3037.0
15.899473328 3036.0
15.921652338 2995.0
15.943831348 3112.0
15.966010358 3181.0
15.988189368 3156.0
16.010368378 3300.0
16.032547388 3287.0
16.054726398 3354.0
16.076905408 3381.0
16.099084418 3508.0
16.121263428 3506.0
16.143442438 3654.0
16.165621448 3661.0
16.187800458 3748.0
16.209979468 3635.0
16.232158478 3717.0
16.254337487 3852.0
16.276516497 3849.0
16.298695507 3982.0
16.320874517 3930.0
16.343053527 3935.0
16.365232537 4112.0
16.387411547 4105.0
16.409590557 4251.0
16.431769567 4330.0
16.453948577 4237.0
16.476127587 4231.0
16.498306597 4336.0
16.520485607 4392.0
16.542664617 4380.0
16.564843627 4474.0
16.587022637 4454.0
16.609201647 4445.0
16.631380657 4538.0
16.653559667 4513.0
16.675738677 4527.0
16.697917687 4709.0
16.720096697 4622.0
16.742275707 4550.0
16.764454717 4551.0
16.786633727 4791.0
16.808812737 4676.0
16.830991747 4644.0
16.853170757 4684.0
16.875349767 4738.0
16.897528777 4560.0
16.919707787 4647.0
16.941886797 4600.0
16.964065807 4528.0
16.986244817 4433.0
17.008423827 4583.0
17.030602837 4579.0
17.052781847 4545.0
17.074960857 4498.0
17.097139867 4344.0
17.119318877 4301.0
17.141497887 4336.0
17.163676897 4242.0
17.185855907 4294.0
17.208034917 4203.0
17.230213927 4159.0
17.252392937 4271.0
17.274571947 4180.0
17.296750957 4110.0
17.318929967 4042.0
17.341108977 4073.0
17.363287987 3955.0
17.385466997 4017.0
17.407646007 3851.0
17.429825017 3864.0
17.452004027 3951.0
17.474183037 3722.0
17.496362047 3646.0
17.518541057 3599.0
17.540720067 3648.0
17.562899077 3532.0
17.585078087 3473.0
17.607257097 3407.0
17.629436107 3424.0
17.651615117 3384.0
17.673794127 3277.0
17.695973137 3439.0
17.718152147 3354.0
17.740331157 3100.0
17.762510167 3276.0
17.784689177 3207.0
17.806868187 3181.0
17.829047197 3127.0
17.851226207 3139.0
17.873405217 3033.0
17.895584227 3058.0
17.917763237 3019.0
17.939942247 2962.0
17.962121257 2921.0
17.984300267 2947.0
18.006479277 2920.0
18.028658287 2836.0
18.050837297 2860.0
18.073016307 2813.0
18.095195317 2815.0
18.117374327 2798.0
18.139553337 2732.0
18.161732347 2739.0
18.183911357 2773.0
18.206090367 2675.0
18.228269377 2718.0
18.250448387 2761.0
18.272627397 2737.0
18.294806407 2728.0
18.316985417 2637.0
18.339164427 2712.0
18.361343437 2683.0
18.383522447 2594.0
18.405701457 2634.0
18.427880467 2808.0
18.450059477 2680.0
18.472238487 2772.0
18.494417497 2735.0
18.516596507 2738.0
18.538775517 2808.0
18.560954527 2818.0
18.583133537 2705.0
18.605312547 2762.0
18.627491557 2778.0
18.649670567 2810.0
18.671849577 2849.0
18.694028587 2885.0
18.716207597 2953.0
18.738386607 2979.0
18.760565617 3037.0
18.782744627 2996.0
18.804923637 2962.0
18.827102647 2995.0
18.849281657 3105.0
18.871460667 2958.0
18.893639677 3054.0
18.915818687 3077.0
18.937997697 3147.0
18.960176707 3064.0
18.982355717 3203.0
19.004534727 3307.0
19.026713737 3276.0
19.048892747 3283.0
19.071071757 3158.0
19.093250767 3343.0
19.115429777 3387.0
19.137608787 3415.0
19.159787797 3403.0
19.181966807 3369.0
19.204145817 3517.0
19.226324827 3550.0
19.248503837 3606.0
19.270682847 3654.0
19.292861857 3650.0
19.315040867 3736.0
19.337219877 3716.0
19.359398887 3784.0
19.381577897 3781.0
19.403756907 3759.0
19.425935917 3858.0
19.448114927 3948.0
19.470293937 3987.0
19.492472947 3999.0
19.514651957 3898.0
19.536830967 3959.0
19.559009977 3982.0
19.581188987 4091.0
19.603367997 4044.0
19.625547007 4042.0
19.647726017 4134.0
19.669905027 4063.0
19.692084037 4047.0
19.714263047 3869.0
19.736442057 3929.0
19.758621067 4146.0
19.780800077 4098.0
19.802979087 4042.0
19.825158097 3990.0
19.847337107 4088.0
19.869516117 4072.0
19.891695127 4041.0
19.913874137 3957.0
19.936053147 3985.0
19.958232157 3981.0
19.980411167 3966.0
20.002590177 3999.0
20.024769187 3989.0
20.046948197 3890.0
20.069127207 3873.0
20.091306217 3820.0
20.113485227 3887.0
20.135664237 3727.0
20.157843247 3779.0
20.180022257 3726.0
20.202201267 3692.0
20.224380277 3613.0
20.246559287 3642.0
20.268738297 3684.0
20.290917307 3468.0
20.313096317 3534.0
20.335275327 3485.0
20.357454337 3498.0
20.379633347 3349.0
20.401812357 3341.0
20.423991367 3264.0
20.446170377 3220.0
20.468349387 3252.0
20.490528397 3245.0
20.512707407 3107.0
20.534886417 3070.0
20.557065427 3030.0
20.579244437 3063.0
20.601423447 2997.0
20.623602457 2939.0
20.645781467 2979.0
20.667960477 2920.0
20.690139487 2865.0
20.712318497 2786.0
20.734497507 2908.0
20.756676517 2790.0
20.778855527 2660.0
20.801034537 2619.0
20.823213547 2620.0
20.845392557 2657.0
20.867571567 2509.0
20.889750577 2462.0
20.911929587 2494.0
20.934108597 2476.0
20.956287607 2505.0
20.978466617 2359.0
21.000645627 2315.0
21.022824637 2433.0
21.045003647 2309.0
21.067182657 2268.0
21.089361667 2065.0
21.111540677 2164.0
21.133719687 2154.0
21.155898697 2213.0
21.178077707 2067.0
21.200256717 2020.0
21.222435727 2039.0
21.244614737 2041.0
21.266793747 2007.0
21.288972757 1968.0
21.311151767 1962.0
21.333330777 1963.0
21.355509787 1941.0
21.377688797 1923.0
21.399867807 1957.0
21.422046817 1884.0
21.444225827 1860.0
21.466404837 1847.0
21.488583847 1810.0
21.510762857 1723.0
21.532941867 1743.0
21.555120876 1721.0
21.577299886 1691.0
21.599478896 1678.0
21.621657906 1684.0
21.643836916 1703.0
21.666015926 1785.0
21.688194936 1616.0
21.710373946 1615.0
21.732552956 1619.0
21.754731966 1630.0
21.776910976 1632.0
21.799089986 1566.0
21.821268996 1581.0
21.843448006 1531.0
21.865627016 1538.0
21.887806026 1527.0
21.909985036 1509.0
21.932164046 1560.0
21.954343056 1482.0
21.976522066 1430.0
21.998701076 1467.0
22.020880086 1504.0
22.043059096 1445.0
22.065238106 1395.0
22.087417116 1411.0
22.109596126 1436.0
22.131775136 1375.0
22.153954146 1394.0
22.176133156 1383.0
22.198312166 1352.0
22.220491176 1416.0
22.242670186 1372.0
22.264849196 1331.0
22.287028206 1362.0
22.309207216 1383.0
22.331386226 1334.0
22.353565236 1325.0
22.375744246 1353.0
22.397923256 1337.0
22.420102266 1345.0
22.442281276 1321.0
22.464460286 1319.0
22.486639296 1339.0
22.508818306 1304.0
22.530997316 1332.0
22.553176326 1346.0
22.575355336 1262.0
22.597534346 1307.0
22.619713356 1293.0
22.641892366 1314.0
22.664071376 1309.0
22.686250386 1312.0
22.708429396 1353.0
22.730608406 1366.0
22.752787416 1283.0
22.774966426 1343.0
22.797145436 1330.0
22.819324446 1313.0
22.841503456 1330.0
22.863682466 1284.0
22.885861476 1337.0
22.908040486 1379.0
22.930219496 1330.0
22.952398506 1347.0
22.974577516 1378.0
22.996756526 1393.0
23.018935536 1362.0
23.041114546 1336.0
23.063293556 1350.0
23.085472566 1349.0
23.107651576 1371.0
23.129830586 1381.0
23.152009596 1393.0
23.174188606 1410.0
23.196367616 1438.0
23.218546626 1397.0
23.240725636 1357.0
23.262904646 1407.0
23.285083656 1387.0
23.307262666 1322.0
23.329441676 1507.0
23.351620686 1389.0
23.373799696 1444.0
23.395978706 1448.0
23.418157716 1471.0
23.440336726 1472.0
23.462515736 1556.0
23.484694746 1538.0
23.506873756 1486.0
23.529052766 1465.0
23.551231776 1547.0
23.573410786 1497.0
23.595589796 1503.0
23.617768806 1544.0
23.639947816 1627.0
23.662126826 1602.0
23.684305836 1554.0
23.706484846 1507.0
23.728663856 1559.0
23.750842866 1597.0
23.773021876 1538.0
23.795200886 1579.0
23.817379896 1603.0
23.839558906 1564.0
23.861737916 1647.0
23.883916926 1512.0
23.906095936 1528.0
23.928274946 1598.0
23.950453956 1583.0
23.972632966 1607.0
23.994811976 1652.0
24.016990986 1608.0
24.039169996 1474.0
24.061349006 1580.0
24.083528016 1578.0
24.105707026 1624.0
24.127886036 1596.0
24.150065046 1572.0
24.172244056 1578.0
24.194423066 1483.0
24.216602076 1529.0
24.238781086 1598.0
24.260960096 1575.0
24.283139106 1570.0
24.305318116 1564.0
24.327497126 1520.0
24.349676136 1544.0
24.371855146 1527.0
24.394034156 1578.0
24.416213166 1591.0
24.438392176 1531.0
24.460571186 1579.0
24.482750196 1576.0
24.504929206 1629.0
24.527108216 1640.0
24.549287226 1546.0
24.571466236 1563.0
24.593645246 1558.0
24.615824256 1577.0
24.638003266 1523.0
24.660182276 1536.0
24.682361286 1536.0
24.704540296 1587.0
24.726719306 1573.0
24.748898316 1545.0
24.771077326 1617.0
24.793256336 1549.0
24.815435346 1572.0
24.837614356 1545.0
24.859793366 1580.0
24.881972376 1520.0
24.904151386 1606.0
24.926330396 1577.0
24.948509406 1600.0
24.970688416 1642.0
24.992867426 1635.0
25.015046436 1727.0
25.037225446 1664.0
25.059404456 1623.0
25.081583466 1643.0
25.103762476 1732.0
25.125941486 1657.0
25.148120496 1655.0
25.170299506 1661.0
25.192478516 1743.0
25.214657526 1727.0
25.236836536 1804.0
25.259015546 1713.0
25.281194556 1783.0
25.303373566 1766.0
25.325552576 1855.0
25.347731586 1786.0
25.369910596 1879.0
25.392089606 1843.0
25.414268616 1822.0
25.436447626 1836.0
25.458626636 1955.0
25.480805646 1993.0
25.502984656 1978.0
25.525163666 2046.0
25.547342676 1997.0
25.569521686 2096.0
25.591700696 2077.0
25.613879706 2101.0
25.636058716 2070.0
25.658237726 2090.0
25.680416736 2098.0
25.702595746 2141.0
25.724774756 2088.0
25.746953766 2202.0
25.769132776 2157.0
25.791311786 2219.0
25.813490796 2243.0
25.835669806 2204.0
25.857848816 2221.0
25.880027826 2166.0
25.902206836 2269.0
25.924385846 2328.0
25.946564856 2317.0
25.968743866 2283.0
25.990922876 2358.0
26.013101886 2373.0
26.035280896 2442.0
26.057459906 2393.0
26.079638916 2481.0
26.101817926 2343.0
26.123996936 2461.0
26.146175946 2381.0
26.168354956 2484.0
26.190533966 2502.0
26.212712976 2412.0
26.234891986 2472.0
26.257070996 2491.0
26.279250006 2467.0
26.301429016 2557.0
26.323608026 2510.0
26.345787036 2527.0
26.367966046 2495.0
26.390145056 2414.0
26.412324066 2580.0
26.434503076 2479.0
26.456682086 2439.0
26.478861096 2482.0
26.501040106 2433.0
26.523219116 2458.0
26.545398126 2434.0
26.567577136 2474.0
26.589756146 2519.0
26.611935156 2437.0
26.634114166 2425.0
26.656293176 2420.0
26.678472186 2403.0
26.700651196 2519.0
26.722830206 2368.0
26.745009216 2449.0
26.767188226 2373.0
26.789367236 2298.0
26.811546246 2317.0
26.833725256 2273.0
26.855904265 2376.0
26.878083275 2320.0
26.900262285 2260.0
26.922441295 2211.0
26.944620305 2243.0
26.966799315 2272.0
26.988978325 2299.0
27.011157335 2282.0
27.033336345 2247.0
27.055515355 2183.0
27.077694365 2137.0
27.099873375 2130.0
27.122052385 2182.0
27.144231395 2165.0
27.166410405 2114.0
27.188589415 2095.0
27.210768425 2101.0
27.232947435 2075.0
27.255126445 2025.0
27.277305455 1965.0
27.299484465 2042.0
27.321663475 1919.0
27.343842485 1981.0
27.366021495 1998.0
27.388200505 1934.0
27.410379515 1981.0
27.432558525 1921.0
27.454737535 1905.0
27.476916545 1859.0
27.499095555 1921.0
27.521274565 1826.0
27.543453575 1867.0
27.565632585 1857.0
27.587811595 1797.0
27.609990605 1776.0
27.632169615 1796.0
27.654348625 1809.0
27.676527635 1795.0
27.698706645 1752.0
27.720885655 1729.0
27.743064665 1713.0
27.765243675 1687.0
27.787422685 1635.0
27.809601695 1694.0
27.831780705 1700.0
27.853959715 1673.0
27.876138725 1702.0
27.898317735 1668.0
27.920496745 1724.0
27.942675755 1683.0
27.964854765 1631.0
27.987033775 1652.0
28.009212785 1649.0
28.031391795 1651.0
28.053570805 1684.0
28.075749815 1579.0
28.097928825 1615.0
28.120107835 1632.0
28.142286845 1663.0
28.164465855 1649.0
28.186644865 1661.0
28.208823875 1587.0
28.231002885 1699.0
28.253181895 1623.0
28.275360905 1621.0
28.297539915 1680.0
28.319718925 1675.0
28.341897935 1638.0
28.364076945 1647.0
28.386255955 1606.0
28.408434965 1628.0
28.430613975 1669.0
28.452792985 1627.0
28.474971995 1619.0
28.497151005 1679.0
28.519330015 1608.0
28.541509025 1691.0
28.563688035 1718.0
28.585867045 1724.0
28.608046055 1653.0
28.630225065 1690.0
28.652404075 1681.0
28.674583085 1678.0
28.696762095 1664.0
28.718941105 1722.0
28.741120115 1774.0
28.763299125 1707.0
28.785478135 1679.0
28.807657145 1754.0
28.829836155 1688.0
28.852015165 1859.0
28.874194175 1796.0
28.896373185 1848.0
28.918552195 1858.0
28.940731205 1810.0
28.962910215 1766.0
28.985089225 1840.0
29.007268235 1835.0
29.029447245 1768.0
29.051626255 1799.0
29.073805265 1819.0
29.095984275 1856.0
29.118163285 1833.0
29.140342295 1829.0
29.162521305 1881.0
29.184700315 1880.0
29.206879325 1839.0
29.229058335 1885.0
29.251237345 1849.0
29.273416355 1856.0
29.295595365 1908.0
29.317774375 1940.0
29.339953385 1835.0
29.362132395 1826.0
29.384311405 1870.0
29.406490415 1876.0
29.428669425 1865.0
29.450848435 1955.0
29.473027445 1855.0
29.495206455 1864.0
29.517385465 1772.0
29.539564475 1855.0
29.561743485 1897.0
29.583922495 1929.0
29.606101505 1859.0
29.628280515 1862.0
29.650459525 1790.0
29.672638535 1806.0
29.694817545 1796.0
29.716996555 1778.0
29.739175565 1762.0
29.761354575 1791.0
29.783533585 1732.0
29.805712595 1744.0
29.827891605 1776.0
29.850070615 1786.0
29.872249625 1731.0
29.894428635 1759.0
29.916607645 1786.0
29.938786655 1764.0
29.960965665 1771.0
29.983144675 1719.0
30.005323685 1698.0
30.027502695 1767.0
30.049681705 1768.0
30.071860715 1702.0
30.094039725 1690.0
30.116218735 1698.0
30.138397745 1693.0
30.160576755 1664.0
30.182755765 1736.0
30.204934775 1792.0
30.227113785 1707.0
30.249292795 1639.0
30.271471805 1652.0
30.293650815 1683.0
30.315829825 1709.0
30.338008835 1594.0
30.360187845 1708.0
30.382366855 1675.0
30.404545865 1657.0
30.426724875 1684.0
30.448903885 1681.0
30.471082895 1634.0
30.493261905 1620.0
30.515440915 1594.0
30.537619925 1645.0
30.559798935 1619.0
30.581977945 1638.0
30.604156955 1664.0
30.626335965 1711.0
30.648514975 1693.0
30.670693985 1607.0
30.692872995 1665.0
30.715052005 1631.0
30.737231015 1649.0
30.759410025 1640.0
30.781589035 1609.0
30.803768045 1669.0
30.825947055 1699.0
30.848126065 1646.0
30.870305075 1641.0
30.892484085 1632.0
30.914663095 1671.0
30.936842105 1701.0
30.959021115 1783.0
30.981200125 1673.0
31.003379135 1673.0
31.025558145 1700.0
31.047737155 1644.0
31.069916165 1577.0
31.092095175 1651.0
31.114274185 1643.0
31.136453195 1668.0
31.158632205 1650.0
31.180811215 1703.0
31.202990225 1566.0
31.225169235 1665.0
31.247348245 1675.0
31.269527255 1619.0
31.291706265 1539.0
31.313885275 1631.0
31.336064285 1588.0
31.358243295 1644.0
31.380422305 1617.0
31.402601315 1668.0
31.424780325 1612.0
31.446959335 1647.0
31.469138345 1545.0
31.491317355 1671.0
31.513496365 1592.0
31.535675375 1576.0
31.557854385 1591.0
31.580033395 1570.0
31.602212405 1580.0
31.624391415 1544.0
31.646570425 1505.0
31.668749435 1557.0
31.690928445 1510.0
31.713107455 1510.0
31.735286465 1393.0
31.757465475 1504.0
31.779644485 1393.0
31.801823495 1376.0
31.824002505 1396.0
31.846181515 1402.0
31.868360525 1351.0
31.890539535 1366.0
31.912718545 1452.0
31.934897555 1380.0
31.957076565 1352.0
31.979255575 1405.0
32.001434585 1315.0
32.023613595 1361.0
32.045792605 1357.0
32.067971615 1330.0
32.090150625 1317.0
32.112329635 1346.0
32.134508645 1283.0
32.156687654 1288.0
32.178866664 1261.0
32.201045674 1285.0
32.223224684 1279.0
32.245403694 1229.0
32.267582704 1166.0
32.289761714 1188.0
32.311940724 1233.0
32.334119734 1198.0
32.356298744 1274.0
32.378477754 1152.0
32.400656764 1129.0
32.422835774 1212.0
32.445014784 1141.0
32.467193794 1176.0
32.489372804 1169.0
32.511551814 1142.0
32.533730824 1181.0
32.555909834 1129.0
32.578088844 1102.0
32.600267854 1179.0
32.622446864 1093.0
32.644625874 1125.0
32.666804884 1138.0
32.688983894 1156.0
32.711162904 1084.0
32.733341914 1138.0
32.755520924 1159.0
32.777699934 1137.0
32.799878944 1115.0
32.822057954 1159.0
32.844236964 1107.0
32.866415974 1152.0
32.888594984 1086.0
32.910773994 1102.0
32.932953004 1056.0
32.955132014 1090.0
32.977311024 1161.0
32.999490034 1081.0
33.021669044 1113.0
33.043848054 1097.0
33.066027064 1028.0
33.088206074 1072.0
33.110385084 1096.0
33.132564094 1139.0
33.154743104 1109.0
33.176922114 1053.0
33.199101124 1162.0
33.221280134 1094.0
33.243459144 1049.0
33.265638154 1118.0
33.287817164 1107.0
33.309996174 1040.0
33.332175184 1159.0
33.354354194 1181.0
33.376533204 1058.0
33.398712214 1093.0
33.420891224 1108.0
33.443070234 1092.0
33.465249244 1107.0
33.487428254 1118.0
33.509607264 1154.0
33.531786274 1105.0
33.553965284 1092.0
33.576144294 1163.0
33.598323304 1163.0
33.620502314 1111.0
33.642681324 1136.0
33.664860334 1117.0
33.687039344 1169.0
33.709218354 1186.0
33.731397364 1104.0
33.753576374 1155.0
33.775755384 1130.0
33.797934394 1204.0
33.820113404 1142.0
33.842292414 1136.0
33.864471424 1170.0
33.886650434 1134.0
33.908829444 1221.0
33.931008454 1179.0
33.953187464 1190.0
33.975366474 1194.0
33.997545484 1161.0
34.019724494 1203.0
34.041903504 1232.0
34.064082514 1114.0
34.086261524 1191.0
34.108440534 1163.0
34.130619544 1147.0
34.152798554 1189.0
34.174977564 1200.0
34.197156574 1174.0
34.219335584 1135.0
34.241514594 1197.0
34.263693604 1224.0
34.285872614 1267.0
34.308051624 1158.0
34.330230634 1197.0
34.352409644 1205.0
34.374588654 1234.0
34.396767664 1187.0
34.418946674 1248.0
34.441125684 1191.0
34.463304694 1200.0
34.485483704 1140.0
34.507662714 1284.0
34.529841724 1253.0
34.552020734 1248.0
34.574199744 1236.0
34.596378754 1246.0
34.618557764 1298.0
34.640736774 1201.0
34.662915784 1337.0
34.685094794 1262.0
34.707273804 1247.0
34.729452814 1243.0
34.751631824 1247.0
34.773810834 1354.0
34.795989844 1255.0
34.818168854 1301.0
34.840347864 1282.0
34.862526874 1322.0
34.884705884 1340.0
34.906884894 1336.0
34.929063904 1366.0
34.951242914 1308.0
34.973421924 1405.0
34.995600934 1385.0
35.017779944 1405.0
35.039958954 1393.0
35.062137964 1348.0
35.084316974 1396.0
35.106495984 1330.0
35.128674994 1448.0
35.150854004 1412.0
35.173033014 1443.0
35.195212024 1438.0
35.217391034 1508.0
35.239570044 1454.0
35.261749054 1490.0
35.283928064 1466.0
35.306107074 1478.0
35.328286084 1531.0
35.350465094 1471.0
35.372644104 1527.0
35.394823114 1492.0
35.417002124 1518.0
35.439181134 1568.0
35.461360144 1512.0
35.483539154 1598.0
35.505718164 1566.0
35.527897174 1569.0
35.550076184 1553.0
35.572255194 1606.0
35.594434204 1507.0
35.616613214 1540.0
35.638792224 1557.0
35.660971234 1602.0
35.683150244 1499.0
35.705329254 1543.0
35.727508264 1549.0
35.749687274 1552.0
35.771866284 1561.0
35.794045294 1602.0
35.816224304 1539.0
35.838403314 1603.0
35.860582324 1554.0
35.882761334 1560.0
35.904940344 1639.0
35.927119354 1572.0
35.949298364 1601.0
35.971477374 1582.0
35.993656384 1548.0
36.015835394 1511.0
36.038014404 1521.0
36.060193414 1574.0
36.082372424 1559.0
36.104551434 1563.0
36.126730444 1574.0
36.148909454 1522.0
36.171088464 1560.0
36.193267474 1558.0
36.215446484 1483.0
36.237625494 1475.0
36.259804504 1456.0
36.281983514 1441.0
36.304162524 1488.0
36.326341534 1482.0
36.348520544 1467.0
36.370699554 1493.0
36.392878564 1387.0
36.415057574 1432.0
36.437236584 1479.0
36.459415594 1472.0
36.481594604 1458.0
36.503773614 1380.0
36.525952624 1319.0
36.548131634 1411.0
36.570310644 1427.0
36.592489654 1337.0
36.614668664 1334.0
36.636847674 1410.0
36.659026684 1326.0
36.681205694 1386.0
36.703384704 1346.0
36.725563714 1305.0
36.747742724 1305.0
36.769921734 1270.0
36.792100744 1258.0
36.814279754 1314.0
36.836458764 1218.0
36.858637774 1263.0
36.880816784 1265.0
36.902995794 1331.0
36.925174804 1227.0
36.947353814 1202.0
36.969532824 1255.0
36.991711834 1199.0
37.013890844 1174.0
37.036069854 1189.0
37.058248864 1203.0
37.080427874 1166.0
37.102606884 1197.0
37.124785894 1211.0
37.146964904 1166.0
37.169143914 1186.0
37.191322924 1192.0
37.213501934 1145.0
37.235680944 1140.0
37.257859954 1143.0
37.280038964 1134.0
37.302217974 1119.0
37.324396984 1091.0
37.346575994 1133.0
37.368755004 1128.0
37.390934014 1170.0
37.413113024 1123.0
37.435292034 1140.0
37.457471043 1150.0
37.479650053 1177.0
37.501829063 1160.0
37.524008073 1173.0
37.546187083 1108.0
37.568366093 1115.0
37.590545103 1169.0
37.612724113 1141.0
37.634903123 1165.0
37.657082133 1158.0
37.679261143 1186.0
37.701440153 1147.0
37.723619163 1155.0
37.745798173 1142.0
37.767977183 1138.0
37.790156193 1102.0
37.812335203 1110.0
37.834514213 1108.0
37.856693223 1097.0
37.878872233 1131.0
37.901051243 1155.0
37.923230253 1143.0
37.945409263 1150.0
37.967588273 1180.0
37.989767283 1130.0
38.011946293 1156.0
38.034125303 1075.0
38.056304313 1103.0
38.078483323 1118.0
38.100662333 1143.0
38.122841343 1190.0
38.145020353 1165.0
38.167199363 1171.0
38.189378373 1117.0
38.211557383 1160.0
38.233736393 1139.0
38.255915403 1140.0
38.278094413 1083.0
38.300273423 1103.0
38.322452433 1106.0
38.344631443 1121.0
38.366810453 1142.0
38.388989463 1203.0
38.411168473 1132.0
38.433347483 1131.0
38.455526493 1184.0
38.477705503 1109.0
38.499884513 1163.0
38.522063523 1077.0
38.544242533 1156.0
38.566421543 1162.0
38.588600553 1135.0
38.610779563 1186.0
38.632958573 1161.0
38.655137583 1111.0
38.677316593 1086.0
38.699495603 1144.0
38.721674613 1150.0
38.743853623 1112.0
38.766032633 1070.0
38.788211643 1152.0
38.810390653 1140.0
38.832569663 1080.0
38.854748673 1096.0
38.876927683 1165.0
38.899106693 1110.0
38.921285703 1143.0
38.943464713 1091.0
38.965643723 1059.0
38.987822733 1073.0
39.010001743 1059.0
39.032180753 1112.0
39.054359763 1020.0
39.076538773 1084.0
39.098717783 1130.0
39.120896793 1126.0
39.143075803 1085.0
39.165254813 1134.0
39.187433823 1076.0
39.209612833 1104.0
39.231791843 1080.0
39.253970853 1026.0
39.276149863 1097.0
39.298328873 1092.0
39.320507883 1078.0
39.342686893 1057.0
39.364865903 1095.0
39.387044913 1069.0
39.409223923 1114.0
39.431402933 1046.0
39.453581943 1073.0
39.475760953 1060.0
39.497939963 1142.0
39.520118973 1053.0
39.542297983 1133.0
39.564476993 1059.0
39.586656003 1085.0
39.608835013 1110.0
39.631014023 1081.0
39.653193033 1084.0
39.675372043 1031.0
39.697551053 1071.0
39.719730063 1077.0
39.741909073 1012.0
39.764088083 1117.0
39.786267093 1119.0
39.808446103 1071.0
39.830625113 1118.0
39.852804123 1073.0
39.874983133 1070.0
39.897162143 1030.0
39.919341153 1110.0
39.941520163 1047.0
39.963699173 1082.0
39.985878183 1085.0
40.008057193 1008.0
40.030236203 1040.0
40.052415213 1052.0
40.074594223 1097.0
40.096773233 1026.0
40.118952243 1064.0
40.141131253 1077.0
40.163310263 1042.0
40.185489273 1024.0
40.207668283 988.0
40.229847293 1003.0
40.252026303 1069.0
40.274205313 1037.0
40.296384323 1063.0
40.318563333 1033.0
40.340742343 1050.0
40.362921353 1017.0
40.385100363 1023.0
40.407279373 1038.0
40.429458383 1005.0
40.451637393 1018.0
40.473816403 1058.0
40.495995413 964.0
40.518174423 980.0
40.540353433 935.0
40.562532443 994.0
40.584711453 957.0
40.606890463 968.0
40.629069473 960.0
40.651248483 920.0
40.673427493 957.0
40.695606503 982.0
40.717785513 925.0
40.739964523 954.0
40.762143533 953.0
40.784322543 951.0
40.806501553 940.0
40.828680563 906.0
40.850859573 926.0
40.873038583 914.0
40.895217593 918.0
40.917396603 919.0
40.939575613 907.0
40.961754623 932.0
40.983933633 920.0
41.006112643 911.0
41.028291653 907.0
41.050470663 920.0
41.072649673 911.0
41.094828683 913.0
41.117007693 899.0
41.139186703 932.0
41.161365713 878.0
41.183544723 874.0
41.205723733 889.0
41.227902743 819.0
41.250081753 867.0
41.272260763 867.0
41.294439773 834.0
41.316618783 875.0
41.338797793 851.0
41.360976803 879.0
41.383155813 857.0
41.405334823 878.0
41.427513833 829.0
41.449692843 883.0
41.471871853 828.0
41.494050863 885.0
41.516229873 904.0
41.538408883 873.0
41.560587893 864.0
41.582766903 890.0
41.604945913 828.0
41.627124923 886.0
41.649303933 849.0
41.671482943 832.0
41.693661953 851.0
41.715840963 846.0
41.738019973 874.0
41.760198983 864.0
41.782377993 884.0
41.804557003 833.0
41.826736013 872.0
41.848915023 803.0
41.871094033 820.0
41.893273043 839.0
41.915452053 830.0
41.937631063 883.0
41.959810073 843.0
41.981989083 877.0
42.004168093 893.0
42.026347103 916.0
42.048526113 861.0
42.070705123 793.0
42.092884133 891.0
42.115063143 879.0
42.137242153 889.0
42.159421163 870.0
42.181600173 886.0
42.203779183 912.0
42.225958193 880.0
42.248137203 833.0
42.270316213 835.0
42.292495223 874.0
42.314674233 921.0
42.336853243 865.0
42.359032253 845.0
42.381211263 903.0
42.403390273 888.0
42.425569283 913.0
42.447748293 896.0
42.469927303 918.0
42.492106313 880.0
42.514285323 880.0
42.536464333 914.0
42.558643343 917.0
42.580822353 879.0
42.603001363 956.0
42.625180373 951.0
42.647359383 862.0
42.669538393 956.0
42.691717403 894.0
42.713896413 926.0
42.736075423 929.0
42.758254432 944.0
42.780433442 943.0
42.802612452 917.0
42.824791462 961.0
42.846970472 953.0
42.869149482 970.0
42.891328492 948.0
42.913507502 980.0
42.935686512 937.0
42.957865522 960.0
42.980044532 953.0
43.002223542 941.0
43.024402552 1008.0
43.046581562 958.0
43.068760572 959.0
43.090939582 1017.0
43.113118592 1024.0
43.135297602 969.0
43.157476612 1006.0
43.179655622 980.0
43.201834632 1010.0
43.224013642 976.0
43.246192652 1016.0
43.268371662 970.0
43.290550672 976.0
43.312729682 970.0
43.334908692 989.0
43.357087702 1004.0
43.379266712 965.0
43.401445722 942.0
43.423624732 928.0
43.445803742 997.0
43.467982752 950.0
43.490161762 1026.0
43.512340772 972.0
43.534519782 1048.0
43.556698792 1046.0
43.578877802 1008.0
43.601056812 1036.0
43.623235822 985.0
43.645414832 1030.0
43.667593842 1025.0
43.689772852 1051.0
43.711951862 1035.0
43.734130872 951.0
43.756309882 1066.0
43.778488892 1039.0
43.800667902 990.0
43.822846912 1009.0
43.845025922 1021.0
43.867204932 1013.0
43.889383942 974.0
43.911562952 1014.0
43.933741962 986.0
43.955920972 936.0
43.978099982 1027.0
44.000278992 1030.0
44.022458002 1026.0
44.044637012 991.0
44.066816022 1026.0
44.088995032 918.0
44.111174042 990.0
44.133353052 975.0
44.155532062 969.0
44.177711072 973.0
44.199890082 964.0
44.222069092 932.0
44.244248102 945.0
44.266427112 1024.0
44.288606122 917.0
44.310785132 962.0
44.332964142 977.0
44.355143152 973.0
44.377322162 908.0
44.399501172 942.0
44.421680182 923.0
44.443859192 976.0
44.466038202 970.0
44.488217212 966.0
44.510396222 918.0
44.532575232 928.0
44.554754242 997.0
44.576933252 961.0
44.599112262 909.0
44.621291272 922.0
44.643470282 925.0
44.665649292 885.0
44.687828302 898.0
44.710007312 920.0
44.732186322 928.0
44.754365332 903.0
44.776544342 935.0
44.798723352 905.0
44.820902362 948.0
44.843081372 894.0
44.865260382 954.0
44.887439392 957.0
44.909618402 973.0
44.931797412 915.0
44.953976422 950.0
44.976155432 878.0
44.998334442 961.0
45.020513452 934.0
45.042692462 932.0
45.064871472 941.0
45.087050482 949.0
45.109229492 948.0
45.131408502 940.0
45.153587512 909.0
45.175766522 923.0
45.197945532 937.0
45.220124542 953.0
45.242303552 957.0
45.264482562 957.0
45.286661572 899.0
45.308840582 959.0
45.331019592 918.0
45.353198602 924.0
45.375377612 993.0
45.397556622 935.0
45.419735632 990.0
45.441914642 982.0
45.464093652 963.0
45.486272662 970.0
45.508451672 930.0
45.530630682 939.0
45.552809692 967.0
45.574988702 962.0
45.597167712 1041.0
45.619346722 1031.0
45.641525732 1013.0
45.663704742 1014.0
45.685883752 1016.0
45.708062762 946.0
45.730241772 968.0
45.752420782 980.0
45.774599792 977.0
45.796778802 991.0
45.818957812 970.0
45.841136822 979.0
45.863315832 1035.0
45.885494842 1036.0
45.907673852 1030.0
45.929852862 978.0
45.952031872 996.0
45.974210882 929.0
45.996389892 955.0
46.018568902 1025.0
46.040747912 965.0
46.062926922 996.0
46.085105932 1028.0
46.107284942 1030.0
46.129463952 1007.0
46.151642962 1018.0
46.173821972 1033.0
46.196000982 1040.0
46.218179992 967.0
46.240359002 988.0
46.262538012 1018.0
46.284717022 970.0
46.306896032 1023.0
46.329075042 998.0
46.351254052 1034.0
46.373433062 991.0
46.395612072 930.0
46.417791082 1001.0
46.439970092 1025.0
46.462149102 986.0
46.484328112 1015.0
46.506507122 1012.0
46.528686132 995.0
46.550865142 928.0
46.573044152 994.0
46.595223162 938.0
46.617402172 974.0
46.639581182 1045.0
46.661760192 962.0
46.683939202 943.0
46.706118212 956.0
46.728297222 951.0
46.750476232 1005.0
46.772655242 1021.0
46.794834252 1006.0
46.817013262 945.0
46.839192272 972.0
46.861371282 956.0
46.883550292 918.0
46.905729302 922.0
46.927908312 929.0
46.950087322 1002.0
46.972266332 945.0
46.994445342 945.0
47.016624352 930.0
47.038803362 938.0
47.060982372 978.0
47.083161382 1020.0
47.105340392 964.0
47.127519402 923.0
47.149698412 880.0
47.171877422 898.0
47.194056432 920.0
47.216235442 817.0
47.238414452 909.0
47.260593462 862.0
47.282772472 925.0
47.304951482 905.0
47.327130492 898.0
47.349309502 897.0
47.371488512 833.0
47.393667522 908.0
47.415846532 892.0
47.438025542 855.0
47.460204552 827.0
47.482383562 925.0
47.504562572 891.0
47.526741582 895.0
47.548920592 911.0
47.571099602 842.0
47.593278612 824.0
47.615457622 870.0
47.637636632 803.0
47.659815642 822.0
47.681994652 844.0
47.704173662 849.0
47.726352672 881.0
47.748531682 807.0
47.770710692 836.0
47.792889702 803.0
47.815068712 800.0
47.837247722 839.0
47.859426732 765.0
47.881605742 812.0
47.903784752 750.0
47.925963762 794.0
47.948142772 822.0
47.970321782 788.0
47.992500792 777.0
48.014679802 740.0
48.036858812 769.0
48.059037821 743.0
48.081216831 810.0
48.103395841 749.0
48.125574851 746.0
48.147753861 748.0
48.169932871 753.0
48.192111881 735.0
48.214290891 769.0
48.236469901 752.0
48.258648911 747.0
48.280827921 759.0
48.303006931 750.0
48.325185941 759.0
48.347364951 719.0
48.369543961 740.0
48.391722971 735.0
48.413901981 673.0
48.436080991 710.0
48.458260001 756.0
48.480439011 742.0
48.502618021 728.0
48.524797031 700.0
48.546976041 708.0
48.569155051 764.0
48.591334061 691.0
48.613513071 704.0
48.635692081 697.0
48.657871091 708.0
48.680050101 751.0
48.702229111 659.0
48.724408121 689.0
48.746587131 714.0
48.768766141 761.0
48.790945151 694.0
48.813124161 683.0
48.835303171 741.0
48.857482181 759.0
48.879661191 764.0
48.901840201 779.0
48.924019211 735.0
48.946198221 681.0
48.968377231 687.0
48.990556241 703.0
49.012735251 755.0
49.034914261 733.0
49.057093271 653.0
49.079272281 679.0
49.101451291 664.0
49.123630301 703.0
49.145809311 687.0
49.167988321 672.0
49.190167331 692.0
49.212346341 706.0
49.234525351 702.0
49.256704361 720.0
49.278883371 685.0
49.301062381 692.0
49.323241391 696.0
49.345420401 694.0
49.367599411 749.0
49.389778421 691.0
49.411957431 718.0
49.434136441 687.0
49.456315451 647.0
49.478494461 757.0
49.500673471 690.0
49.522852481 661.0
49.545031491 727.0
49.567210501 735.0
49.589389511 693.0
49.611568521 700.0
49.633747531 676.0
49.655926541 712.0
49.678105551 737.0
49.700284561 709.0
49.722463571 710.0
49.744642581 716.0
49.766821591 680.0
49.789000601 708.0
49.811179611 701.0
49.833358621 744.0
49.855537631 715.0
49.877716641 709.0
49.899895651 728.0
49.922074661 720.0
49.944253671 711.0
49.966432681 783.0
49.988611691 719.0
50.010790701 669.0
50.032969711 744.0
50.055148721 687.0
50.077327731 692.0
50.099506741 744.0
50.121685751 760.0
50.143864761 722.0
50.166043771 726.0
50.188222781 729.0
50.210401791 725.0
50.232580801 696.0
50.254759811 746.0
50.276938821 675.0
50.299117831 750.0
50.321296841 716.0
50.343475851 713.0
50.365654861 685.0
50.387833871 723.0
50.410012881 742.0
50.432191891 779.0
50.454370901 741.0
50.476549911 730.0
50.498728921 680.0
50.520907931 744.0
50.543086941 727.0
50.565265951 692.0
50.587444961 777.0
50.609623971 746.0
50.631802981 761.0
50.653981991 729.0
50.676161001 718.0
50.698340011 745.0
50.720519021 708.0
50.742698031 699.0
50.764877041 691.0
50.787056051 728.0
50.809235061 762.0
50.831414071 705.0
50.853593081 711.0
50.875772091 732.0
50.897951101 723.0
50.920130111 736.0
50.942309121 782.0
50.964488131 719.0
50.986667141 732.0
51.008846151 726.0
51.031025161 685.0
51.053204171 721.0
51.075383181 686.0
51.097562191 690.0
51.119741201 706.0
51.141920211 717.0
51.164099221 714.0
51.186278231 715.0
51.208457241 669.0
51.230636251 687.0
51.252815261 675.0
51.274994271 686.0
51.297173281 674.0
51.319352291 678.0
51.341531301 744.0
51.363710311 675.0
51.385889321 669.0
51.408068331 667.0
51.430247341 677.0
51.452426351 700.0
51.474605361 636.0
51.496784371 706.0
51.518963381 689.0
51.541142391 685.0
51.563321401 669.0
51.585500411 710.0
51.607679421 663.0
51.629858431 704.0
51.652037441 678.0
51.674216451 656.0
51.696395461 693.0
51.718574471 689.0
51.740753481 708.0
51.762932491 704.0
51.785111501 645.0
51.807290511 675.0
51.829469521 665.0
51.851648531 723.0
51.873827541 671.0
51.896006551 702.0
51.918185561 671.0
51.940364571 720.0
51.962543581 680.0
51.984722591 686.0
52.006901601 720.0
52.029080611 682.0
52.051259621 700.0
52.073438631 714.0
52.095617641 704.0
52.117796651 665.0
52.139975661 692.0
52.162154671 692.0
52.184333681 670.0
52.206512691 673.0
52.228691701 659.0
52.250870711 685.0
52.273049721 688.0
52.295228731 701.0
52.317407741 675.0
52.339586751 713.0
52.361765761 714.0
52.383944771 705.0
52.406123781 678.0
52.428302791 711.0
52.450481801 709.0
52.472660811 710.0
52.494839821 695.0
52.517018831 696.0
52.539197841 693.0
52.561376851 705.0
52.583555861 719.0
52.605734871 693.0
52.627913881 727.0
52.650092891 672.0
52.672271901 676.0
52.694450911 690.0
52.716629921 701.0
52.738808931 652.0
52.760987941 669.0
52.783166951 704.0
52.805345961 693.0
52.827524971 707.0
52.849703981 715.0
52.871882991 744.0
52.894062001 716.0
52.916241011 689.0
52.938420021 682.0
52.960599031 744.0
52.982778041 664.0
53.004957051 736.0
53.027136061 694.0
53.049315071 679.0
53.071494081 636.0
53.093673091 645.0
53.115852101 730.0
53.138031111 689.0
53.160210121 684.0
53.182389131 678.0
53.204568141 714.0
53.226747151 721.0
53.248926161 713.0
53.271105171 678.0
53.293284181 701.0
53.315463191 684.0
53.337642201 714.0
53.359821210 749.0
53.382000220 704.0
53.404179230 644.0
53.426358240 680.0
53.448537250 666.0
53.470716260 723.0
53.492895270 680.0
53.515074280 673.0
53.537253290 685.0
53.559432300 701.0
53.581611310 677.0
53.603790320 688.0
53.625969330 701.0
53.648148340 671.0
53.670327350 661.0
53.692506360 682.0
53.714685370 647.0
53.736864380 683.0
53.759043390 694.0
53.781222400 656.0
53.803401410 671.0
53.825580420 700.0
53.847759430 661.0
53.869938440 615.0
53.892117450 656.0
53.914296460 648.0
53.936475470 606.0
53.958654480 664.0
53.980833490 667.0
54.003012500 714.0
54.025191510 628.0
54.047370520 634.0
54.069549530 638.0
54.091728540 713.0
54.113907550 607.0
54.136086560 625.0
54.158265570 690.0
54.180444580 664.0
54.202623590 696.0
54.224802600 675.0
54.246981610 665.0
54.269160620 632.0
54.291339630 679.0
54.313518640 634.0
54.335697650 652.0
54.357876660 636.0
54.380055670 592.0
54.402234680 653.0
54.424413690 672.0
54.446592700 641.0
54.468771710 690.0
54.490950720 642.0
54.513129730 606.0
54.535308740 651.0
54.557487750 609.0
54.579666760 617.0
54.601845770 654.0
54.624024780 662.0
54.646203790 637.0
54.668382800 593.0
54.690561810 610.0
54.712740820 636.0
54.734919830 619.0
54.757098840 640.0
54.779277850 666.0
54.801456860 622.0
54.823635870 641.0
54.845814880 612.0
54.867993890 665.0
54.890172900 645.0
54.912351910 591.0
54.934530920 644.0
54.956709930 610.0
54.978888940 645.0
55.001067950 659.0
55.023246960 597.0
55.045425970 622.0
55.067604980 626.0
55.089783990 645.0
55.111963000 616.0
55.134142010 659.0
55.156321020 655.0
55.178500030 663.0
55.200679040 613.0
55.222858050 597.0
55.245037060 613.0
55.267216070 653.0
55.289395080 602.0
55.311574090 655.0
55.333753100 643.0
55.355932110 594.0
55.378111120 645.0
55.400290130 633.0
55.422469140 619.0
55.444648150 625.0
55.466827160 577.0
55.489006170 624.0
55.511185180 609.0
55.533364190 640.0
55.555543200 609.0
55.577722210 632.0
55.599901220 637.0
55.622080230 614.0
55.644259240 649.0
55.666438250 654.0
55.688617260 649.0
55.710796270 649.0
55.732975280 643.0
55.755154290 642.0
55.777333300 612.0
55.799512310 651.0
55.821691320 715.0
55.843870330 657.0
55.866049340 640.0
55.888228350 624.0
55.910407360 651.0
55.932586370 629.0
55.954765380 662.0
55.976944390 622.0
55.999123400 623.0
