2.991289510 552.0
3.013468520 576.0
3.035647530 572.0
3.057826540 609.0
3.080005550 602.0
3.102184560 595.0
3.124363570 575.0
3.146542580 576.0
3.168721590 571.0
3.190900600 598.0
3.213079610 624.0
3.235258620 684.0
3.257437630 619.0
3.279616640 615.0
3.301795650 588.0
3.323974660 598.0
3.346153670 645.0
3.368332680 648.0
3.390511690 651.0
3.412690700 670.0
3.434869710 716.0
3.457048720 676.0
3.479227730 741.0
3.501406740 723.0
3.523585750 740.0
3.545764760 752.0
3.567943770 739.0
3.590122780 845.0
3.612301790 795.0
3.634480800 804.0
3.656659810 832.0
3.678838820 857.0
3.701017830 851.0
3.723196840 908.0
3.745375850 974.0
3.767554860 929.0
3.789733870 963.0
3.811912880 1017.0
3.834091890 990.0
3.856270900 1042.0
3.878449910 1037.0
3.900628920 1062.0
3.922807930 1011.0
3.944986940 1085.0
3.967165950 1085.0
3.989344960 1149.0
4.011523970 1132.0
4.033702980 1103.0
4.055881990 1194.0
4.078061000 1240.0
4.100240010 1203.0
4.122419020 1256.0
4.144598030 1296.0
4.166777040 1262.0
4.188956050 1227.0
4.211135060 1299.0
4.233314070 1279.0
4.255493080 1328.0
4.277672090 1251.0
4.299851100 1215.0
4.322030110 1288.0
4.344209120 1278.0
4.366388130 1307.0
4.388567140 1308.0
4.410746150 1267.0
4.432925160 1309.0
4.455104170 1323.0
4.477283180 1319.0
4.499462190 1226.0
4.521641200 1287.0
4.543820210 1248.0
4.565999220 1233.0
4.588178230 1285.0
4.610357240 1340.0
4.632536250 1279.0
4.654715260 1309.0
4.676894270 1219.0
4.699073280 1302.0
4.721252290 1259.0
4.743431300 1314.0
4.765610310 1303.0
4.787789320 1265.0
4.809968330 1291.0
4.832147340 1290.0
4.854326350 1281.0
4.876505360 1275.0
4.898684370 1227.0
4.920863380 1302.0
4.943042390 1287.0
4.965221400 1310.0
4.987400410 1295.0
5.009579420 1263.0
5.031758430 1267.0
5.053937440 1298.0
5.076116450 1280.0
5.098295460 1277.0
5.120474470 1245.0
5.142653480 1217.0
5.164832490 1267.0
5.187011500 1286.0
5.209190510 1297.0
5.231369520 1320.0
5.253548530 1306.0
5.275727540 1269.0
5.297906550 1323.0
5.320085560 1324.0
5.342264570 1304.0
5.364443580 1263.0
5.386622590 1315.0
5.408801600 1312.0
5.430980610 1283.0
5.453159620 1273.0
5.475338630 1301.0
5.497517640 1308.0
5.519696650 1252.0
5.541875660 1215.0
5.564054670 1298.0
5.586233680 1251.0
5.608412690 1262.0
5.630591700 1353.0
5.652770709 1302.0
5.674949719 1332.0
5.697128729 1325.0
5.719307739 1351.0
5.741486749 1333.0
5.763665759 1322.0
5.785844769 1357.0
5.808023779 1368.0
5.830202789 1353.0
5.852381799 1380.0
5.874560809 1403.0
5.896739819 1328.0
5.918918829 1355.0
5.941097839 1415.0
5.963276849 1394.0
5.985455859 1355.0
6.007634869 1370.0
6.029813879 1440.0
6.051992889 1381.0
6.074171899 1398.0
6.096350909 1480.0
6.118529919 1462.0
6.140708929 1377.0
6.162887939 1432.0
6.185066949 1449.0
6.207245959 1479.0
6.229424969 1433.0
6.251603979 1420.0
6.273782989 1440.0
6.295961999 1508.0
6.318141009 1467.0
6.340320019 1521.0
6.362499029 1466.0
6.384678039 1563.0
6.406857049 1567.0
6.429036059 1486.0
6.451215069 1512.0
6.473394079 1489.0
6.495573089 1545.0
6.517752099 1531.0
6.539931109 1562.0
6.562110119 1568.0
6.584289129 1488.0
6.606468139 1532.0
6.628647149 1596.0
6.650826159 1622.0
6.673005169 1669.0
6.695184179 1629.0
6.717363189 1624.0
6.739542199 1628.0
6.761721209 1725.0
6.783900219 1608.0
6.806079229 1585.0
6.828258239 1632.0
6.850437249 1709.0
6.872616259 1686.0
6.894795269 1711.0
6.916974279 1750.0
6.939153289 1724.0
6.961332299 1630.0
6.983511309 1697.0
7.005690319 1772.0
7.027869329 1700.0
7.050048339 1816.0
7.072227349 1815.0
7.094406359 1813.0
7.116585369 1804.0
7.138764379 1800.0
7.160943389 1829.0
7.183122399 1807.0
7.205301409 1887.0
7.227480419 1878.0
7.249659429 1792.0
7.271838439 1844.0
7.294017449 1902.0
7.316196459 1846.0
7.338375469 1914.0
7.360554479 1954.0
7.382733489 1897.0
7.404912499 1942.0
7.427091509 1993.0
7.449270519 1941.0
7.471449529 2016.0
7.493628539 1912.0
7.515807549 2015.0
7.537986559 2038.0
7.560165569 2009.0
7.582344579 1995.0
7.604523589 2003.0
7.626702599 2014.0
7.648881609 2109.0
7.671060619 1986.0
7.693239629 2118.0
7.715418639 2093.0
7.737597649 2132.0
7.759776659 2114.0
7.781955669 2154.0
7.804134679 2023.0
7.826313689 2146.0
7.848492699 2077.0
7.870671709 2088.0
7.892850719 2161.0
7.915029729 2219.0
7.937208739 2156.0
7.959387749 2168.0
7.981566759 2250.0
8.003745769 2289.0
8.025924779 2106.0
8.048103789 2279.0
8.070282799 2293.0
8.092461809 2274.0
8.114640819 2253.0
8.136819829 2363.0
8.158998839 2400.0
8.181177849 2299.0
8.203356859 2340.0
8.225535869 2326.0
8.247714879 2315.0
8.269893889 2386.0
8.292072899 2381.0
8.314251909 2389.0
8.336430919 2460.0
8.358609929 2508.0
8.380788939 2397.0
8.402967949 2435.0
8.425146959 2493.0
8.447325969 2554.0
8.469504979 2583.0
8.491683989 2603.0
8.513862999 2465.0
8.536042009 2628.0
8.558221019 2599.0
8.580400029 2544.0
8.602579039 2662.0
8.624758049 2707.0
8.646937059 2632.0
8.669116069 2723.0
8.691295079 2759.0
8.713474089 2768.0
8.735653099 2813.0
8.757832109 2743.0
8.780011119 2729.0
8.802190129 2860.0
8.824369139 2835.0
8.846548149 2775.0
8.868727159 2914.0
8.890906169 2938.0
8.913085179 2920.0
8.935264189 2969.0
8.957443199 2952.0
8.979622209 2995.0
9.001801219 3079.0
9.023980229 3104.0
9.046159239 3066.0
9.068338249 3044.0
9.090517259 3108.0
9.112696269 3146.0
9.134875279 3207.0
9.157054289 3277.0
9.179233299 3181.0
9.201412309 3298.0
9.223591319 3288.0
9.245770329 3347.0
9.267949339 3280.0
9.290128349 3480.0
9.312307359 3394.0
9.334486369 3352.0
9.356665379 3557.0
9.378844389 3575.0
9.401023399 3442.0
9.423202409 3531.0
9.445381419 3631.0
9.467560429 3705.0
9.489739439 3649.0
9.511918449 3530.0
9.534097459 3735.0
9.556276469 3705.0
9.578455479 3754.0
9.600634489 3844.0
9.622813499 3736.0
9.644992509 3860.0
9.667171519 3980.0
9.689350529 3942.0
9.711529539 4003.0
9.733708549 3840.0
9.755887559 3927.0
9.778066569 4109.0
9.800245579 4062.0
9.822424589 3918.0
9.844603599 4122.0
9.866782609 4091.0
9.888961619 4137.0
9.911140629 4163.0
9.933319639 4174.0
9.955498649 4174.0
9.977677659 4284.0
9.999856669 4235.0
10.022035679 4339.0
10.044214689 4365.0
10.066393699 4290.0
10.088572709 4381.0
10.110751719 4371.0
10.132930729 4389.0
10.155109739 4298.0
10.177288749 4372.0
10.199467759 4246.0
10.221646769 4526.0
10.243825779 4440.0
10.266004789 4356.0
10.288183799 4520.0
10.310362809 4380.0
10.332541819 4258.0
10.354720829 4387.0
10.376899839 4408.0
10.399078849 4457.0
10.421257859 4372.0
10.443436869 4295.0
10.465615879 4414.0
10.487794889 4265.0
10.509973899 4300.0
10.532152909 4217.0
10.554331919 4158.0
10.576510929 4228.0
10.598689939 4275.0
10.620868949 4170.0
10.643047959 4018.0
10.665226969 4175.0
10.687405979 4119.0
10.709584989 4123.0
10.731763999 4171.0
10.753943009 3883.0
10.776122019 4111.0
10.798301029 3901.0
10.820480039 4023.0
10.842659049 3788.0
10.864838059 3801.0
10.887017069 3808.0
10.909196079 3792.0
10.931375089 3797.0
10.953554098 3772.0
10.975733108 3765.0
10.997912118 3689.0
11.020091128 3577.0
11.042270138 3579.0
11.064449148 3608.0
11.086628158 3433.0
11.108807168 3590.0
11.130986178 3641.0
11.153165188 3333.0
11.175344198 3400.0
11.197523208 3439.0
11.219702218 3270.0
11.241881228 3337.0
11.264060238 3271.0
11.286239248 3241.0
11.308418258 3258.0
11.330597268 3258.0
11.352776278 3129.0
11.374955288 3160.0
11.397134298 3166.0
11.419313308 3096.0
11.441492318 2967.0
11.463671328 3013.0
11.485850338 2943.0
11.508029348 2992.0
11.530208358 2901.0
11.552387368 2920.0
11.574566378 2795.0
11.596745388 2755.0
11.618924398 2900.0
11.641103408 2777.0
11.663282418 2727.0
11.685461428 2723.0
11.707640438 2682.0
11.729819448 2706.0
11.751998458 2649.0
11.774177468 2607.0
11.796356478 2521.0
11.818535488 2550.0
11.840714498 2459.0
11.862893508 2439.0
11.885072518 2458.0
11.907251528 2422.0
11.929430538 2411.0
11.951609548 2331.0
11.973788558 2349.0
11.995967568 2254.0
12.018146578 2297.0
12.040325588 2235.0
12.062504598 2230.0
12.084683608 2160.0
12.106862618 2154.0
12.129041628 2133.0
12.151220638 2113.0
12.173399648 2168.0
12.195578658 2103.0
12.217757668 2000.0
12.239936678 1944.0
12.262115688 1955.0
12.284294698 1961.0
12.306473708 1983.0
12.328652718 1888.0
12.350831728 1944.0
12.373010738 1987.0
12.395189748 1820.0
12.417368758 1758.0
12.439547768 1742.0
12.461726778 1796.0
12.483905788 1745.0
12.506084798 1826.0
12.528263808 1697.0
12.550442818 1679.0
12.572621828 1745.0
12.594800838 1621.0
12.616979848 1599.0
12.639158858 1630.0
12.661337868 1651.0
12.683516878 1518.0
12.705695888 1587.0
12.727874898 1561.0
12.750053908 1468.0
12.772232918 1490.0
12.794411928 1514.0
12.816590938 1493.0
12.838769948 1454.0
12.860948958 1429.0
12.883127968 1457.0
12.905306978 1420.0
12.927485988 1411.0
12.949664998 1376.0
12.971844008 1391.0
12.994023018 1370.0
13.016202028 1399.0
13.038381038 1414.0
13.060560048 1369.0
13.082739058 1366.0
13.104918068 1367.0
13.127097078 1313.0
13.149276088 1334.0
13.171455098 1340.0
13.193634108 1347.0
13.215813118 1262.0
13.237992128 1246.0
13.260171138 1256.0
13.282350148 1281.0
13.304529158 1257.0
13.326708168 1287.0
13.348887178 1266.0
13.371066188 1276.0
13.393245198 1287.0
13.415424208 1291.0
13.437603218 1224.0
13.459782228 1283.0
13.481961238 1260.0
13.504140248 1211.0
13.526319258 1240.0
13.548498268 1268.0
13.570677278 1243.0
13.592856288 1197.0
13.615035298 1176.0
13.637214308 1228.0
13.659393318 1203.0
13.681572328 1229.0
13.703751338 1206.0
13.725930348 1207.0
13.748109358 1200.0
13.770288368 1209.0
13.792467378 1204.0
13.814646388 1163.0
13.836825398 1208.0
13.859004408 1216.0
13.881183418 1215.0
13.903362428 1206.0
13.925541438 1222.0
13.947720448 1267.0
13.969899458 1190.0
13.992078468 1220.0
14.014257478 1258.0
14.036436488 1228.0
14.058615498 1211.0
14.080794508 1168.0
14.102973518 1250.0
14.125152528 1211.0
14.147331538 1236.0
14.169510548 1253.0
14.191689558 1282.0
14.213868568 1258.0
14.236047578 1215.0
14.258226588 1233.0
14.280405598 1244.0
14.302584608 1263.0
14.324763618 1265.0
14.346942628 1180.0
14.369121638 1212.0
14.391300648 1291.0
14.413479658 1262.0
14.435658668 1339.0
14.457837678 1296.0
14.480016688 1328.0
14.502195698 1275.0
14.524374708 1281.0
14.546553718 1288.0
14.568732728 1283.0
14.590911738 1282.0
14.613090748 1267.0
14.635269758 1385.0
14.657448768 1378.0
14.679627778 1295.0
14.701806788 1382.0
14.723985798 1400.0
14.746164808 1344.0
14.768343818 1370.0
14.790522828 1422.0
14.812701838 1434.0
14.834880848 1344.0
14.857059858 1355.0
14.879238868 1361.0
14.901417878 1437.0
14.923596888 1405.0
14.945775898 1384.0
14.967954908 1403.0
14.990133918 1488.0
15.012312928 1485.0
15.034491938 1484.0
15.056670948 1416.0
15.078849958 1421.0
15.101028968 1551.0
15.123207978 1494.0
15.145386988 1538.0
15.167565998 1585.0
15.189745008 1568.0
15.211924018 1542.0
15.234103028 1585.0
15.256282038 1530.0
15.278461048 1607.0
15.300640058 1544.0
15.322819068 1588.0
15.344998078 1581.0
15.367177088 1616.0
15.389356098 1715.0
15.411535108 1630.0
15.433714118 1629.0
15.455893128 1699.0
15.478072138 1773.0
15.500251148 1755.0
15.522430158 1737.0
15.544609168 1697.0
15.566788178 1799.0
15.588967188 1750.0
15.611146198 1740.0
15.633325208 1792.0
15.655504218 1780.0
15.677683228 1725.0
15.699862238 1772.0
15.722041248 1854.0
15.744220258 1808.0
15.766399268 1885.0
15.788578278 1869.0
15.810757288 1830.0
15.832936298 1934.0
15.855115308 1923.0
15.877294318 2016.0
15.899473328 1915.0
15.921652338 1899.0
15.943831348 1933.0
15.966010358 1942.0
15.988189368 1966.0
16.010368378 2010.0
16.032547388 2010.0
16.054726398 1958.0
16.076905408 2001.0
16.099084418 2039.0
16.121263428 2114.0
16.143442438 2171.0
16.165621448 2147.0
16.187800458 2174.0
16.209979468 2175.0
16.232158478 2137.0
16.254337487 2227.0
16.276516497 2213.0
16.298695507 2114.0
16.320874517 2222.0
16.343053527 2242.0
16.365232537 2183.0
16.387411547 2315.0
16.409590557 2264.0
16.431769567 2274.0
16.453948577 2265.0
16.476127587 2282.0
16.498306597 2289.0
16.520485607 2224.0
16.542664617 2187.0
16.564843627 2287.0
16.587022637 2328.0
16.609201647 2293.0
16.631380657 2351.0
16.653559667 2258.0
16.675738677 2302.0
16.697917687 2343.0
16.720096697 2384.0
16.742275707 2416.0
16.764454717 2482.0
16.786633727 2441.0
16.808812737 2465.0
16.830991747 2373.0
16.853170757 2340.0
16.875349767 2314.0
16.897528777 2488.0
16.919707787 2441.0
16.941886797 2410.0
16.964065807 2307.0
16.986244817 2473.0
17.008423827 2369.0
17.030602837 2310.0
17.052781847 2362.0
17.074960857 2357.0
17.097139867 2366.0
17.119318877 2430.0
17.141497887 2400.0
17.163676897 2419.0
17.185855907 2308.0
17.208034917 2263.0
17.230213927 2388.0
17.252392937 2310.0
17.274571947 2270.0
17.296750957 2329.0
17.318929967 2360.0
17.341108977 2256.0
17.363287987 2260.0
17.385466997 2336.0
17.407646007 2123.0
17.429825017 2287.0
17.452004027 2296.0
17.474183037 2245.0
17.496362047 2126.0
17.518541057 2238.0
17.540720067 2207.0
17.562899077 2211.0
17.585078087 2211.0
17.607257097 2179.0
17.629436107 2206.0
17.651615117 2113.0
17.673794127 2209.0
17.695973137 2185.0
17.718152147 2056.0
17.740331157 2091.0
17.762510167 2200.0
17.784689177 2107.0
17.806868187 2123.0
17.829047197 2080.0
17.851226207 2144.0
17.873405217 2054.0
17.895584227 2088.0
17.917763237 2017.0
17.939942247 2070.0
17.962121257 2089.0
17.984300267 2141.0
18.006479277 2003.0
18.028658287 2048.0
18.050837297 2121.0
18.073016307 2060.0
18.095195317 2000.0
18.117374327 2014.0
18.139553337 2026.0
18.161732347 2112.0
18.183911357 2045.0
18.206090367 1996.0
18.228269377 2032.0
18.250448387 2000.0
18.272627397 2012.0
18.294806407 2055.0
18.316985417 1976.0
18.339164427 1990.0
18.361343437 1951.0
18.383522447 1955.0
18.405701457 1974.0
18.427880467 1997.0
18.450059477 1879.0
18.472238487 2035.0
18.494417497 1955.0
18.516596507 1978.0
18.538775517 1960.0
18.560954527 1952.0
18.583133537 1951.0
18.605312547 2036.0
18.627491557 1951.0
18.649670567 1960.0
18.671849577 1949.0
18.694028587 1968.0
18.716207597 1935.0
18.738386607 1991.0
18.760565617 2010.0
18.782744627 1949.0
18.804923637 1987.0
18.827102647 2027.0
18.849281657 2082.0
18.871460667 1993.0
18.893639677 1942.0
18.915818687 2006.0
18.937997697 1973.0
18.960176707 2038.0
18.982355717 2068.0
19.004534727 2041.0
19.026713737 2099.0
19.048892747 2143.0
19.071071757 2100.0
19.093250767 2016.0
19.115429777 2082.0
19.137608787 2075.0
19.159787797 2052.0
19.181966807 2055.0
19.204145817 2127.0
19.226324827 2181.0
19.248503837 2090.0
19.270682847 2111.0
19.292861857 2033.0
19.315040867 2104.0
19.337219877 2157.0
19.359398887 2078.0
19.381577897 2144.0
19.403756907 2082.0
19.425935917 2158.0
19.448114927 2100.0
19.470293937 2071.0
19.492472947 2072.0
19.514651957 2143.0
19.536830967 2171.0
19.559009977 2084.0
19.581188987 2078.0
19.603367997 2048.0
19.625547007 2140.0
19.647726017 2146.0
19.669905027 2114.0
19.692084037 2151.0
19.714263047 2079.0
19.736442057 2161.0
19.758621067 2039.0
19.780800077 2068.0
19.802979087 2122.0
19.825158097 2136.0
19.847337107 2112.0
19.869516117 2127.0
19.891695127 2055.0
19.913874137 2098.0
19.936053147 2051.0
19.958232157 2026.0
19.980411167 2080.0
20.002590177 2026.0
20.024769187 2058.0
20.046948197 1998.0
20.069127207 2002.0
20.091306217 2009.0
20.113485227 1952.0
20.135664237 1983.0
20.157843247 2020.0
20.180022257 1924.0
20.202201267 1917.0
20.224380277 1918.0
20.246559287 1822.0
20.268738297 1949.0
20.290917307 1859.0
20.313096317 1857.0
20.335275327 1885.0
20.357454337 1919.0
20.379633347 1864.0
20.401812357 1827.0
20.423991367 1776.0
20.446170377 1813.0
20.468349387 1806.0
20.490528397 1862.0
20.512707407 1749.0
20.534886417 1758.0
20.557065427 1753.0
20.579244437 1793.0
20.601423447 1760.0
20.623602457 1706.0
20.645781467 1706.0
20.667960477 1746.0
20.690139487 1720.0
20.712318497 1695.0
20.734497507 1601.0
20.756676517 1591.0
20.778855527 1602.0
20.801034537 1565.0
20.823213547 1652.0
20.845392557 1719.0
20.867571567 1582.0
20.889750577 1605.0
20.911929587 1487.0
20.934108597 1619.0
20.956287607 1498.0
20.978466617 1565.0
21.000645627 1486.0
21.022824637 1550.0
21.045003647 1534.0
21.067182657 1489.0
21.089361667 1447.0
21.111540677 1501.0
21.133719687 1487.0
21.155898697 1493.0
21.178077707 1474.0
21.200256717 1449.0
21.222435727 1497.0
21.244614737 1443.0
21.266793747 1452.0
21.288972757 1401.0
21.311151767 1393.0
21.333330777 1395.0
21.355509787 1404.0
21.377688797 1386.0
21.399867807 1363.0
21.422046817 1344.0
21.444225827 1376.0
21.466404837 1321.0
21.488583847 1252.0
21.510762857 1285.0
21.532941867 1326.0
21.555120876 1313.0
21.577299886 1350.0
21.599478896 1264.0
21.621657906 1363.0
21.643836916 1256.0
21.666015926 1217.0
21.688194936 1306.0
21.710373946 1241.0
21.732552956 1205.0
21.754731966 1194.0
21.776910976 1186.0
21.799089986 1258.0
21.821268996 1184.0
21.843448006 1233.0
21.865627016 1169.0
21.887806026 1189.0
21.909985036 1220.0
21.932164046 1155.0
21.954343056 1189.0
21.976522066 1123.0
21.998701076 1162.0
22.020880086 1161.0
22.043059096 1171.0
22.065238106 1186.0
22.087417116 1136.0
22.109596126 1116.0
22.131775136 1119.0
22.153954146 1172.0
22.176133156 1161.0
22.198312166 1093.0
22.220491176 1118.0
22.242670186 1078.0
22.264849196 1118.0
22.287028206 1146.0
22.309207216 1070.0
22.331386226 1120.0
22.353565236 1126.0
22.375744246 1078.0
22.397923256 1106.0
22.420102266 1066.0
22.442281276 1060.0
22.464460286 1056.0
22.486639296 1168.0
22.508818306 1118.0
22.530997316 1057.0
22.553176326 1078.0
22.575355336 1122.0
22.597534346 1060.0
22.619713356 1076.0
22.641892366 1042.0
22.664071376 1123.0
22.686250386 1105.0
22.708429396 1114.0
22.730608406 1025.0
22.752787416 1086.0
22.774966426 1029.0
22.797145436 1087.0
22.819324446 1116.0
22.841503456 1094.0
22.863682466 1060.0
22.885861476 1036.0
22.908040486 1027.0
22.930219496 1071.0
22.952398506 1072.0
22.974577516 1060.0
22.996756526 1082.0
23.018935536 1154.0
23.041114546 1025.0
23.063293556 1033.0
23.085472566 1039.0
23.107651576 1076.0
23.129830586 1085.0
23.152009596 1067.0
23.174188606 1123.0
23.196367616 1050.0
23.218546626 1074.0
23.240725636 1072.0
23.262904646 1064.0
23.285083656 1030.0
23.307262666 1113.0
23.329441676 1038.0
23.351620686 1067.0
23.373799696 1075.0
23.395978706 1052.0
23.418157716 1053.0
23.440336726 1098.0
23.462515736 1052.0
23.484694746 1080.0
23.506873756 1071.0
23.529052766 1113.0
23.551231776 1136.0
23.573410786 1075.0
23.595589796 1101.0
23.617768806 1062.0
23.639947816 1138.0
23.662126826 1115.0
23.684305836 1020.0
23.706484846 1053.0
23.728663856 1111.0
23.750842866 1092.0
23.773021876 1060.0
23.795200886 1080.0
23.817379896 1148.0
23.839558906 1099.0
23.861737916 1046.0
23.883916926 1104.0
23.906095936 1074.0
23.928274946 1102.0
23.950453956 1136.0
23.972632966 1098.0
23.994811976 1163.0
24.016990986 1164.0
24.039169996 1144.0
24.061349006 1078.0
24.083528016 1117.0
24.105707026 1032.0
24.127886036 1151.0
24.150065046 1160.0
24.172244056 1145.0
24.194423066 1145.0
24.216602076 1111.0
24.238781086 1125.0
24.260960096 1110.0
24.283139106 1055.0
24.305318116 1128.0
24.327497126 1099.0
24.349676136 1041.0
24.371855146 1162.0
24.394034156 1089.0
24.416213166 1127.0
24.438392176 1148.0
24.460571186 1077.0
24.482750196 1139.0
24.504929206 1076.0
24.527108216 1101.0
24.549287226 1023.0
24.571466236 1138.0
24.593645246 1158.0
24.615824256 1141.0
24.638003266 1102.0
24.660182276 1147.0
24.682361286 1133.0
24.704540296 1118.0
24.726719306 1083.0
24.748898316 1086.0
24.771077326 1142.0
24.793256336 1152.0
24.815435346 1149.0
24.837614356 1120.0
24.859793366 1137.0
24.881972376 1112.0
24.904151386 1161.0
24.926330396 1139.0
24.948509406 1139.0
24.970688416 1201.0
24.992867426 1179.0
25.015046436 1114.0
25.037225446 1160.0
25.059404456 1224.0
25.081583466 1196.0
25.103762476 1185.0
25.125941486 1172.0
25.148120496 1138.0
25.170299506 1204.0
25.192478516 1157.0
25.214657526 1213.0
25.236836536 1202.0
25.259015546 1231.0
25.281194556 1252.0
25.303373566 1212.0
25.325552576 1211.0
25.347731586 1207.0
25.369910596 1182.0
25.392089606 1254.0
25.414268616 1238.0
25.436447626 1254.0
25.458626636 1241.0
25.480805646 1303.0
25.502984656 1232.0
25.525163666 1271.0
25.547342676 1256.0
25.569521686 1243.0
25.591700696 1327.0
25.613879706 1192.0
25.636058716 1291.0
25.658237726 1355.0
25.680416736 1291.0
25.702595746 1412.0
25.724774756 1296.0
25.746953766 1302.0
25.769132776 1270.0
25.791311786 1237.0
25.813490796 1272.0
25.835669806 1314.0
25.857848816 1255.0
25.880027826 1283.0
25.902206836 1353.0
25.924385846 1348.0
25.946564856 1338.0
25.968743866 1311.0
25.990922876 1376.0
26.013101886 1318.0
26.035280896 1348.0
26.057459906 1399.0
26.079638916 1318.0
26.101817926 1353.0
26.123996936 1397.0
26.146175946 1406.0
26.168354956 1377.0
26.190533966 1324.0
26.212712976 1386.0
26.234891986 1353.0
26.257070996 1363.0
26.279250006 1383.0
26.301429016 1399.0
26.323608026 1440.0
26.345787036 1370.0
26.367966046 1381.0
26.390145056 1408.0
26.412324066 1375.0
26.434503076 1345.0
26.456682086 1366.0
26.478861096 1416.0
26.501040106 1355.0
26.523219116 1396.0
26.545398126 1404.0
26.567577136 1371.0
26.589756146 1365.0
26.611935156 1396.0
26.634114166 1356.0
26.656293176 1375.0
26.678472186 1389.0
26.700651196 1429.0
26.722830206 1377.0
26.745009216 1392.0
26.767188226 1403.0
26.789367236 1391.0
26.811546246 1406.0
26.833725256 1329.0
26.855904265 1391.0
26.878083275 1414.0
26.900262285 1308.0
26.922441295 1385.0
26.944620305 1418.0
26.966799315 1332.0
26.988978325 1358.0
27.011157335 1373.0
27.033336345 1304.0
27.055515355 1348.0
27.077694365 1380.0
27.099873375 1378.0
27.122052385 1294.0
27.144231395 1349.0
27.166410405 1293.0
27.188589415 1320.0
27.210768425 1338.0
27.232947435 1314.0
27.255126445 1315.0
27.277305455 1282.0
27.299484465 1288.0
27.321663475 1289.0
27.343842485 1279.0
27.366021495 1359.0
27.388200505 1295.0
27.410379515 1345.0
27.432558525 1297.0
27.454737535 1197.0
27.476916545 1274.0
27.499095555 1306.0
27.521274565 1248.0
27.543453575 1216.0
27.565632585 1251.0
27.587811595 1363.0
27.609990605 1238.0
27.632169615 1267.0
27.654348625 1255.0
27.676527635 1198.0
27.698706645 1247.0
27.720885655 1216.0
27.743064665 1202.0
27.765243675 1179.0
27.787422685 1236.0
27.809601695 1271.0
27.831780705 1203.0
27.853959715 1234.0
27.876138725 1207.0
27.898317735 1214.0
27.920496745 1209.0
27.942675755 1204.0
27.964854765 1255.0
27.987033775 1151.0
28.009212785 1202.0
28.031391795 1187.0
28.053570805 1204.0
28.075749815 1147.0
28.097928825 1214.0
28.120107835 1220.0
28.142286845 1193.0
28.164465855 1174.0
28.186644865 1208.0
28.208823875 1139.0
28.231002885 1172.0
28.253181895 1154.0
28.275360905 1126.0
28.297539915 1125.0
28.319718925 1201.0
28.341897935 1150.0
28.364076945 1171.0
28.386255955 1243.0
28.408434965 1137.0
28.430613975 1158.0
28.452792985 1170.0
28.474971995 1176.0
28.497151005 1148.0
28.519330015 1174.0
28.541509025 1113.0
28.563688035 1188.0
28.585867045 1112.0
28.608046055 1173.0
28.630225065 1137.0
28.652404075 1176.0
28.674583085 1148.0
28.696762095 1127.0
28.718941105 1098.0
28.741120115 1179.0
28.763299125 1185.0
28.785478135 1153.0
28.807657145 1086.0
28.829836155 1137.0
28.852015165 1121.0
28.874194175 1103.0
28.896373185 1082.0
28.918552195 1152.0
28.940731205 1180.0
28.962910215 1150.0
28.985089225 1149.0
29.007268235 1112.0
29.029447245 1115.0
29.051626255 1126.0
29.073805265 1123.0
29.095984275 1092.0
29.118163285 1212.0
29.140342295 1153.0
29.162521305 1097.0
29.184700315 1156.0
29.206879325 1133.0
29.229058335 1143.0
29.251237345 1119.0
29.273416355 1157.0
29.295595365 1134.0
29.317774375 1146.0
29.339953385 1112.0
29.362132395 1127.0
29.384311405 1103.0
29.406490415 1079.0
29.428669425 1162.0
29.450848435 1156.0
29.473027445 1119.0
29.495206455 1114.0
29.517385465 1141.0
29.539564475 1160.0
29.561743485 1113.0
29.583922495 1164.0
29.606101505 1123.0
29.628280515 1175.0
29.650459525 1122.0
29.672638535 1111.0
29.694817545 1066.0
29.716996555 1102.0
29.739175565 1122.0
29.761354575 1035.0
29.783533585 1129.0
29.805712595 1065.0
29.827891605 1123.0
29.850070615 1045.0
29.872249625 1107.0
29.894428635 1117.0
29.916607645 1020.0
29.938786655 1078.0
29.960965665 1105.0
29.983144675 1140.0
30.005323685 1011.0
30.027502695 1069.0
30.049681705 1048.0
30.071860715 1014.0
30.094039725 1084.0
30.116218735 1098.0
30.138397745 1029.0
30.160576755 1062.0
30.182755765 1072.0
30.204934775 1087.0
30.227113785 1036.0
30.249292795 1097.0
30.271471805 1004.0
30.293650815 1056.0
30.315829825 1114.0
30.338008835 1016.0
30.360187845 1018.0
30.382366855 1053.0
30.404545865 1078.0
30.426724875 1025.0
30.448903885 1025.0
30.471082895 1030.0
30.493261905 1019.0
30.515440915 994.0
30.537619925 1062.0
30.559798935 1038.0
30.581977945 1096.0
30.604156955 1031.0
30.626335965 1038.0
30.648514975 1089.0
30.670693985 1034.0
30.692872995 1111.0
30.715052005 997.0
30.737231015 1021.0
30.759410025 1019.0
30.781589035 1043.0
30.803768045 1014.0
30.825947055 1018.0
30.848126065 1011.0
30.870305075 1055.0
30.892484085 1012.0
30.914663095 1007.0
30.936842105 1017.0
30.959021115 992.0
30.981200125 991.0
31.003379135 1025.0
31.025558145 982.0
31.047737155 1040.0
31.069916165 986.0
31.092095175 1025.0
31.114274185 1013.0
31.136453195 932.0
31.158632205 984.0
31.180811215 1033.0
31.202990225 1018.0
31.225169235 974.0
31.247348245 908.0
31.269527255 968.0
31.291706265 1015.0
31.313885275 991.0
31.336064285 1025.0
31.358243295 1006.0
31.380422305 1002.0
31.402601315 964.0
31.424780325 972.0
31.446959335 1016.0
31.469138345 955.0
31.491317355 1015.0
31.513496365 927.0
31.535675375 922.0
31.557854385 927.0
31.580033395 923.0
31.602212405 986.0
31.624391415 935.0
31.646570425 895.0
31.668749435 926.0
31.690928445 970.0
31.713107455 906.0
31.735286465 951.0
31.757465475 900.0
31.779644485 905.0
31.801823495 908.0
31.824002505 946.0
31.846181515 892.0
31.868360525 887.0
31.890539535 915.0
31.912718545 892.0
31.934897555 940.0
31.957076565 889.0
31.979255575 902.0
32.001434585 873.0
32.023613595 889.0
32.045792605 845.0
32.067971615 887.0
32.090150625 880.0
32.112329635 896.0
32.134508645 912.0
32.156687654 888.0
32.178866664 896.0
32.201045674 848.0
32.223224684 839.0
32.245403694 839.0
32.267582704 885.0
32.289761714 869.0
32.311940724 886.0
32.334119734 861.0
32.356298744 812.0
32.378477754 874.0
32.400656764 828.0
32.422835774 848.0
32.445014784 820.0
32.467193794 870.0
32.489372804 859.0
32.511551814 791.0
32.533730824 807.0
32.555909834 876.0
32.578088844 801.0
32.600267854 829.0
32.622446864 865.0
32.644625874 817.0
32.666804884 845.0
32.688983894 939.0
32.711162904 829.0
32.733341914 839.0
32.755520924 808.0
32.777699934 835.0
32.799878944 793.0
32.822057954 844.0
32.844236964 830.0
32.866415974 803.0
32.888594984 785.0
32.910773994 797.0
32.932953004 807.0
32.955132014 821.0
32.977311024 826.0
32.999490034 818.0
33.021669044 823.0
33.043848054 810.0
33.066027064 791.0
33.088206074 789.0
33.110385084 763.0
33.132564094 780.0
33.154743104 789.0
33.176922114 812.0
33.199101124 802.0
33.221280134 808.0
33.243459144 781.0
33.265638154 805.0
33.287817164 824.0
33.309996174 758.0
33.332175184 781.0
33.354354194 789.0
33.376533204 785.0
33.398712214 832.0
33.420891224 808.0
33.443070234 776.0
33.465249244 752.0
33.487428254 823.0
33.509607264 827.0
33.531786274 843.0
33.553965284 816.0
33.576144294 819.0
33.598323304 823.0
33.620502314 746.0
33.642681324 771.0
33.664860334 828.0
33.687039344 798.0
33.709218354 785.0
33.731397364 793.0
33.753576374 825.0
33.775755384 833.0
33.797934394 822.0
33.820113404 860.0
33.842292414 818.0
33.864471424 811.0
33.886650434 780.0
33.908829444 808.0
33.931008454 789.0
33.953187464 795.0
33.975366474 794.0
33.997545484 813.0
34.019724494 811.0
34.041903504 777.0
34.064082514 775.0
34.086261524 820.0
34.108440534 820.0
34.130619544 823.0
34.152798554 809.0
34.174977564 840.0
34.197156574 838.0
34.219335584 773.0
34.241514594 824.0
34.263693604 810.0
34.285872614 813.0
34.308051624 791.0
34.330230634 824.0
34.352409644 833.0
34.374588654 828.0
34.396767664 849.0
34.418946674 805.0
34.441125684 834.0
34.463304694 861.0
34.485483704 874.0
34.507662714 825.0
34.529841724 875.0
34.552020734 850.0
34.574199744 821.0
34.596378754 877.0
34.618557764 861.0
34.640736774 835.0
34.662915784 824.0
34.685094794 788.0
34.707273804 835.0
34.729452814 829.0
34.751631824 840.0
34.773810834 878.0
34.795989844 853.0
34.818168854 837.0
34.840347864 822.0
34.862526874 821.0
34.884705884 870.0
34.906884894 880.0
34.929063904 818.0
34.951242914 819.0
34.973421924 880.0
34.995600934 838.0
35.017779944 822.0
35.039958954 881.0
35.062137964 847.0
35.084316974 849.0
35.106495984 839.0
35.128674994 894.0
35.150854004 869.0
35.173033014 908.0
35.195212024 859.0
35.217391034 882.0
35.239570044 869.0
35.261749054 856.0
35.283928064 846.0
35.306107074 867.0
35.328286084 873.0
35.350465094 856.0
35.372644104 874.0
35.394823114 877.0
35.417002124 841.0
35.439181134 958.0
35.461360144 855.0
35.483539154 863.0
35.505718164 909.0
35.527897174 881.0
35.550076184 911.0
35.572255194 843.0
35.594434204 863.0
35.616613214 879.0
35.638792224 867.0
35.660971234 917.0
35.683150244 871.0
35.705329254 828.0
35.727508264 914.0
35.749687274 895.0
35.771866284 911.0
35.794045294 901.0
35.816224304 897.0
35.838403314 882.0
35.860582324 906.0
35.882761334 889.0
35.904940344 923.0
35.927119354 861.0
35.949298364 859.0
35.971477374 859.0
35.993656384 868.0
36.015835394 858.0
36.038014404 901.0
36.060193414 844.0
36.082372424 873.0
36.104551434 908.0
36.126730444 843.0
36.148909454 906.0
36.171088464 842.0
36.193267474 891.0
36.215446484 820.0
36.237625494 799.0
36.259804504 866.0
36.281983514 891.0
36.304162524 856.0
36.326341534 889.0
36.348520544 911.0
36.370699554 894.0
36.392878564 863.0
36.415057574 841.0
36.437236584 837.0
36.459415594 835.0
36.481594604 939.0
36.503773614 831.0
36.525952624 844.0
36.548131634 809.0
36.570310644 837.0
36.592489654 862.0
36.614668664 848.0
36.636847674 796.0
36.659026684 808.0
36.681205694 895.0
36.703384704 776.0
36.725563714 865.0
36.747742724 839.0
36.769921734 835.0
36.792100744 811.0
36.814279754 772.0
36.836458764 880.0
36.858637774 815.0
36.880816784 815.0
36.902995794 813.0
36.925174804 857.0
36.947353814 817.0
36.969532824 755.0
36.991711834 770.0
37.013890844 787.0
37.036069854 814.0
37.058248864 789.0
37.080427874 792.0
37.102606884 799.0
37.124785894 778.0
37.146964904 785.0
37.169143914 773.0
37.191322924 791.0
37.213501934 821.0
37.235680944 782.0
37.257859954 867.0
37.280038964 796.0
37.302217974 798.0
37.324396984 813.0
37.346575994 774.0
37.368755004 809.0
37.390934014 811.0
37.413113024 760.0
37.435292034 766.0
37.457471043 805.0
37.479650053 810.0
37.501829063 777.0
37.524008073 760.0
37.546187083 724.0
37.568366093 759.0
37.590545103 729.0
37.612724113 756.0
37.634903123 774.0
37.657082133 788.0
37.679261143 755.0
37.701440153 776.0
37.723619163 778.0
37.745798173 733.0
37.767977183 734.0
37.790156193 770.0
37.812335203 736.0
37.834514213 758.0
37.856693223 749.0
37.878872233 784.0
37.901051243 709.0
37.923230253 780.0
37.945409263 749.0
37.967588273 735.0
37.989767283 741.0
38.011946293 747.0
38.034125303 737.0
38.056304313 717.0
38.078483323 715.0
38.100662333 757.0
38.122841343 745.0
38.145020353 763.0
38.167199363 740.0
38.189378373 786.0
38.211557383 707.0
38.233736393 690.0
38.255915403 733.0
38.278094413 743.0
38.300273423 748.0
38.322452433 701.0
38.344631443 755.0
38.366810453 744.0
38.388989463 720.0
38.411168473 695.0
38.433347483 729.0
38.455526493 717.0
38.477705503 717.0
38.499884513 685.0
38.522063523 668.0
38.544242533 732.0
38.566421543 707.0
38.588600553 758.0
38.610779563 719.0
38.632958573 740.0
38.655137583 756.0
38.677316593 730.0
38.699495603 709.0
38.721674613 739.0
38.743853623 689.0
38.766032633 752.0
38.788211643 749.0
38.810390653 749.0
38.832569663 727.0
38.854748673 748.0
38.876927683 721.0
38.899106693 747.0
38.921285703 753.0
38.943464713 731.0
38.965643723 715.0
38.987822733 695.0
39.010001743 716.0
39.032180753 725.0
39.054359763 706.0
39.076538773 694.0
39.098717783 728.0
39.120896793 705.0
39.143075803 666.0
39.165254813 719.0
39.187433823 703.0
39.209612833 675.0
39.231791843 706.0
39.253970853 678.0
39.276149863 672.0
39.298328873 698.0
39.320507883 637.0
39.342686893 694.0
39.364865903 688.0
39.387044913 710.0
39.409223923 666.0
39.431402933 679.0
39.453581943 717.0
39.475760953 707.0
39.497939963 706.0
39.520118973 647.0
39.542297983 660.0
39.564476993 697.0
39.586656003 696.0
39.608835013 697.0
39.631014023 645.0
39.653193033 727.0
39.675372043 714.0
39.697551053 679.0
39.719730063 698.0
39.741909073 676.0
39.764088083 706.0
39.786267093 660.0
39.808446103 682.0
39.830625113 643.0
39.852804123 645.0
39.874983133 682.0
39.897162143 677.0
39.919341153 679.0
39.941520163 665.0
39.963699173 695.0
39.985878183 690.0
40.008057193 736.0
40.030236203 648.0
40.052415213 659.0
40.074594223 680.0
40.096773233 662.0
40.118952243 660.0
40.141131253 672.0
40.163310263 677.0
40.185489273 695.0
40.207668283 694.0
40.229847293 699.0
40.252026303 681.0
40.274205313 693.0
40.296384323 675.0
40.318563333 653.0
40.340742343 614.0
40.362921353 655.0
40.385100363 658.0
40.407279373 683.0
40.429458383 643.0
40.451637393 585.0
40.473816403 639.0
40.495995413 653.0
40.518174423 667.0
40.540353433 660.0
40.562532443 657.0
40.584711453 652.0
40.606890463 683.0
40.629069473 650.0
40.651248483 688.0
40.673427493 627.0
40.695606503 662.0
40.717785513 668.0
40.739964523 654.0
40.762143533 649.0
40.784322543 602.0
40.806501553 644.0
40.828680563 619.0
40.850859573 665.0
40.873038583 590.0
40.895217593 593.0
40.917396603 614.0
40.939575613 623.0
40.961754623 636.0
40.983933633 627.0
41.006112643 595.0
41.028291653 669.0
41.050470663 654.0
41.072649673 554.0
41.094828683 663.0
41.117007693 589.0
41.139186703 580.0
41.161365713 638.0
41.183544723 584.0
41.205723733 602.0
41.227902743 663.0
41.250081753 646.0
41.272260763 613.0
41.294439773 648.0
41.316618783 619.0
41.338797793 574.0
41.360976803 638.0
41.383155813 589.0
41.405334823 633.0
41.427513833 639.0
41.449692843 609.0
41.471871853 614.0
41.494050863 614.0
41.516229873 621.0
41.538408883 600.0
41.560587893 600.0
41.582766903 579.0
41.604945913 618.0
41.627124923 617.0
41.649303933 605.0
41.671482943 599.0
41.693661953 585.0
41.715840963 646.0
41.738019973 569.0
41.760198983 595.0
41.782377993 599.0
41.804557003 611.0
41.826736013 630.0
41.848915023 607.0
41.871094033 566.0
41.893273043 629.0
41.915452053 631.0
41.937631063 617.0
41.959810073 602.0
41.981989083 598.0
42.004168093 592.0
42.026347103 612.0
42.048526113 606.0
42.070705123 581.0
42.092884133 592.0
42.115063143 611.0
42.137242153 626.0
42.159421163 594.0
42.181600173 627.0
42.203779183 587.0
42.225958193 622.0
42.248137203 588.0
42.270316213 624.0
42.292495223 650.0
42.314674233 598.0
42.336853243 599.0
42.359032253 584.0
42.381211263 604.0
42.403390273 637.0
42.425569283 613.0
42.447748293 632.0
42.469927303 611.0
42.492106313 636.0
42.514285323 553.0
42.536464333 607.0
42.558643343 610.0
42.580822353 625.0
42.603001363 592.0
42.625180373 605.0
42.647359383 613.0
42.669538393 627.0
42.691717403 574.0
42.713896413 612.0
42.736075423 609.0
42.758254432 615.0
42.780433442 594.0
42.802612452 613.0
42.824791462 629.0
42.846970472 650.0
42.869149482 595.0
42.891328492 620.0
42.913507502 630.0
42.935686512 589.0
42.957865522 659.0
42.980044532 676.0
43.002223542 636.0
43.024402552 601.0
43.046581562 645.0
43.068760572 627.0
43.090939582 608.0
43.113118592 577.0
43.135297602 639.0
43.157476612 661.0
43.179655622 582.0
43.201834632 570.0
43.224013642 606.0
43.246192652 615.0
43.268371662 624.0
43.290550672 616.0
43.312729682 596.0
43.334908692 628.0
43.357087702 595.0
43.379266712 679.0
43.401445722 654.0
43.423624732 613.0
43.445803742 570.0
43.467982752 589.0
43.490161762 626.0
43.512340772 655.0
43.534519782 617.0
43.556698792 690.0
43.578877802 625.0
43.601056812 614.0
43.623235822 635.0
43.645414832 628.0
43.667593842 629.0
43.689772852 609.0
43.711951862 604.0
43.734130872 629.0
43.756309882 599.0
43.778488892 593.0
43.800667902 601.0
43.822846912 633.0
43.845025922 606.0
43.867204932 625.0
43.889383942 639.0
43.911562952 597.0
43.933741962 640.0
43.955920972 639.0
43.978099982 676.0
44.000278992 588.0
44.022458002 561.0
44.044637012 604.0
44.066816022 626.0
44.088995032 616.0
44.111174042 590.0
44.133353052 587.0
44.155532062 626.0
44.177711072 608.0
44.199890082 624.0
44.222069092 597.0
44.244248102 677.0
44.266427112 577.0
44.288606122 628.0
44.310785132 645.0
44.332964142 633.0
44.355143152 615.0
44.377322162 608.0
44.399501172 599.0
44.421680182 595.0
44.443859192 597.0
44.466038202 623.0
44.488217212 591.0
44.510396222 592.0
44.532575232 588.0
44.554754242 604.0
44.576933252 624.0
44.599112262 616.0
44.621291272 589.0
44.643470282 623.0
44.665649292 564.0
44.687828302 580.0
44.710007312 631.0
44.732186322 610.0
44.754365332 574.0
44.776544342 614.0
44.798723352 594.0
44.820902362 622.0
44.843081372 612.0
44.865260382 584.0
44.887439392 589.0
44.909618402 629.0
44.931797412 588.0
44.953976422 589.0
44.976155432 557.0
44.998334442 582.0
45.020513452 615.0
45.042692462 577.0
45.064871472 615.0
45.087050482 604.0
45.109229492 571.0
45.131408502 560.0
45.153587512 571.0
45.175766522 625.0
45.197945532 590.0
45.220124542 566.0
45.242303552 576.0
45.264482562 569.0
45.286661572 558.0
45.308840582 599.0
45.331019592 598.0
45.353198602 588.0
45.375377612 620.0
45.397556622 578.0
45.419735632 556.0
45.441914642 594.0
45.464093652 581.0
45.486272662 601.0
45.508451672 593.0
45.530630682 578.0
45.552809692 663.0
45.574988702 566.0
45.597167712 560.0
45.619346722 588.0
45.641525732 613.0
45.663704742 572.0
45.685883752 620.0
45.708062762 602.0
45.730241772 623.0
45.752420782 566.0
45.774599792 563.0
45.796778802 599.0
45.818957812 625.0
45.841136822 599.0
45.863315832 603.0
45.885494842 574.0
45.907673852 554.0
45.929852862 534.0
45.952031872 585.0
45.974210882 601.0
45.996389892 599.0
46.018568902 599.0
46.040747912 593.0
46.062926922 602.0
46.085105932 606.0
46.107284942 587.0
46.129463952 577.0
46.151642962 572.0
46.173821972 578.0
46.196000982 566.0
46.218179992 597.0
46.240359002 559.0
46.262538012 571.0
46.284717022 584.0
46.306896032 518.0
46.329075042 625.0
46.351254052 586.0
46.373433062 573.0
46.395612072 626.0
46.417791082 544.0
46.439970092 549.0
46.462149102 573.0
46.484328112 572.0
46.506507122 591.0
46.528686132 569.0
46.550865142 603.0
46.573044152 637.0
46.595223162 575.0
46.617402172 580.0
46.639581182 548.0
46.661760192 621.0
46.683939202 555.0
46.706118212 532.0
46.728297222 611.0
46.750476232 579.0
46.772655242 571.0
46.794834252 565.0
46.817013262 569.0
46.839192272 585.0
46.861371282 562.0
46.883550292 593.0
46.905729302 552.0
46.927908312 561.0
46.950087322 505.0
46.972266332 585.0
46.994445342 561.0
47.016624352 555.0
47.038803362 550.0
47.060982372 576.0
47.083161382 610.0
47.105340392 569.0
47.127519402 565.0
47.149698412 557.0
47.171877422 585.0
47.194056432 539.0
47.216235442 536.0
47.238414452 562.0
47.260593462 526.0
47.282772472 551.0
47.304951482 549.0
47.327130492 564.0
47.349309502 537.0
47.371488512 522.0
47.393667522 558.0
47.415846532 593.0
47.438025542 551.0
47.460204552 563.0
47.482383562 545.0
47.504562572 544.0
47.526741582 542.0
47.548920592 613.0
47.571099602 545.0
47.593278612 519.0
47.615457622 552.0
47.637636632 563.0
47.659815642 516.0
47.681994652 535.0
47.704173662 522.0
47.726352672 533.0
47.748531682 524.0
47.770710692 490.0
47.792889702 522.0
47.815068712 500.0
47.837247722 540.0
47.859426732 526.0
47.881605742 531.0
47.903784752 558.0
47.925963762 490.0
47.948142772 515.0
47.970321782 539.0
47.992500792 484.0
48.014679802 491.0
48.036858812 540.0
48.059037821 520.0
48.081216831 483.0
48.103395841 493.0
48.125574851 516.0
48.147753861 482.0
48.169932871 523.0
48.192111881 515.0
48.214290891 482.0
48.236469901 473.0
48.258648911 531.0
48.280827921 543.0
48.303006931 487.0
48.325185941 514.0
48.347364951 519.0
48.369543961 464.0
48.391722971 501.0
48.413901981 483.0
48.436080991 500.0
48.458260001 511.0
48.480439011 523.0
48.502618021 502.0
48.524797031 494.0
48.546976041 466.0
48.569155051 466.0
48.591334061 535.0
48.613513071 466.0
48.635692081 476.0
48.657871091 476.0
48.680050101 494.0
48.702229111 494.0
48.724408121 441.0
48.746587131 529.0
48.768766141 464.0
48.790945151 512.0
48.813124161 494.0
48.835303171 479.0
48.857482181 466.0
48.879661191 510.0
48.901840201 491.0
48.924019211 473.0
48.946198221 470.0
48.968377231 507.0
48.990556241 517.0
49.012735251 503.0
49.034914261 482.0
49.057093271 453.0
49.079272281 503.0
49.101451291 453.0
49.123630301 455.0
49.145809311 451.0
49.167988321 454.0
49.190167331 465.0
49.212346341 465.0
49.234525351 469.0
49.256704361 487.0
49.278883371 496.0
49.301062381 527.0
49.323241391 484.0
49.345420401 504.0
49.367599411 456.0
49.389778421 469.0
49.411957431 487.0
49.434136441 444.0
49.456315451 473.0
49.478494461 452.0
49.500673471 436.0
49.522852481 458.0
49.545031491 488.0
49.567210501 467.0
49.589389511 500.0
49.611568521 459.0
49.633747531 475.0
49.655926541 488.0
49.678105551 469.0
49.700284561 457.0
49.722463571 483.0
49.744642581 435.0
49.766821591 472.0
49.789000601 424.0
49.811179611 408.0
49.833358621 459.0
49.855537631 475.0
49.877716641 437.0
49.899895651 476.0
49.922074661 464.0
49.944253671 452.0
49.966432681 460.0
49.988611691 457.0
50.010790701 468.0
50.032969711 442.0
50.055148721 472.0
50.077327731 460.0
50.099506741 457.0
50.121685751 435.0
50.143864761 456.0
50.166043771 485.0
50.188222781 459.0
50.210401791 477.0
50.232580801 499.0
50.254759811 461.0
50.276938821 450.0
50.299117831 502.0
50.321296841 436.0
50.343475851 465.0
50.365654861 447.0
50.387833871 452.0
50.410012881 464.0
50.432191891 437.0
50.454370901 508.0
50.476549911 467.0
50.498728921 497.0
50.520907931 435.0
50.543086941 430.0
50.565265951 479.0
50.587444961 477.0
50.609623971 484.0
50.631802981 455.0
50.653981991 455.0
50.676161001 448.0
50.698340011 450.0
50.720519021 463.0
50.742698031 440.0
50.764877041 491.0
50.787056051 412.0
50.809235061 431.0
50.831414071 471.0
50.853593081 437.0
50.875772091 441.0
50.897951101 455.0
50.920130111 443.0
50.942309121 424.0
50.964488131 447.0
50.986667141 461.0
51.008846151 436.0
51.031025161 442.0
51.053204171 471.0
51.075383181 414.0
51.097562191 459.0
51.119741201 410.0
51.141920211 450.0
51.164099221 443.0
51.186278231 411.0
51.208457241 447.0
51.230636251 477.0
51.252815261 444.0
51.274994271 430.0
51.297173281 429.0
51.319352291 449.0
51.341531301 454.0
51.363710311 404.0
51.385889321 460.0
51.408068331 448.0
51.430247341 394.0
51.452426351 428.0
51.474605361 397.0
51.496784371 440.0
51.518963381 430.0
51.541142391 431.0
51.563321401 421.0
51.585500411 432.0
51.607679421 445.0
51.629858431 444.0
51.652037441 428.0
51.674216451 439.0
51.696395461 426.0
51.718574471 464.0
51.740753481 435.0
51.762932491 441.0
51.785111501 415.0
51.807290511 448.0
51.829469521 414.0
51.851648531 425.0
51.873827541 414.0
51.896006551 458.0
51.918185561 420.0
51.940364571 431.0
51.962543581 439.0
51.984722591 423.0
52.006901601 430.0
52.029080611 437.0
52.051259621 430.0
52.073438631 447.0
52.095617641 446.0
52.117796651 431.0
52.139975661 415.0
52.162154671 424.0
52.184333681 437.0
52.206512691 447.0
52.228691701 420.0
52.250870711 447.0
52.273049721 415.0
52.295228731 422.0
52.317407741 477.0
52.339586751 477.0
52.361765761 445.0
52.383944771 463.0
52.406123781 418.0
52.428302791 419.0
52.450481801 430.0
52.472660811 438.0
52.494839821 404.0
52.517018831 425.0
52.539197841 446.0
52.561376851 432.0
52.583555861 433.0
52.605734871 437.0
52.627913881 401.0
52.650092891 427.0
52.672271901 410.0
52.694450911 418.0
52.716629921 418.0
52.738808931 409.0
52.760987941 422.0
52.783166951 440.0
52.805345961 435.0
52.827524971 421.0
52.849703981 372.0
52.871882991 434.0
52.894062001 449.0
52.916241011 433.0
52.938420021 412.0
52.960599031 444.0
52.982778041 403.0
53.004957051 436.0
53.027136061 403.0
53.049315071 392.0
53.071494081 403.0
53.093673091 427.0
53.115852101 407.0
53.138031111 393.0
53.160210121 425.0
53.182389131 431.0
53.204568141 402.0
53.226747151 437.0
53.248926161 417.0
53.271105171 427.0
53.293284181 416.0
53.315463191 370.0
53.337642201 402.0
53.359821210 392.0
53.382000220 436.0
53.404179230 406.0
53.426358240 435.0
53.448537250 426.0
53.470716260 405.0
53.492895270 398.0
53.515074280 409.0
53.537253290 410.0
53.559432300 404.0
53.581611310 394.0
53.603790320 449.0
53.625969330 437.0
53.648148340 414.0
53.670327350 391.0
53.692506360 429.0
53.714685370 366.0
53.736864380 356.0
53.759043390 411.0
53.781222400 437.0
53.803401410 444.0
53.825580420 397.0
53.847759430 403.0
53.869938440 475.0
53.892117450 400.0
53.914296460 411.0
53.936475470 475.0
53.958654480 444.0
53.980833490 411.0
54.003012500 396.0
54.025191510 391.0
54.047370520 423.0
54.069549530 415.0
54.091728540 419.0
54.113907550 380.0
54.136086560 403.0
54.158265570 405.0
54.180444580 398.0
54.202623590 377.0
54.224802600 366.0
54.246981610 391.0
54.269160620 429.0
54.291339630 388.0
54.313518640 406.0
54.335697650 386.0
54.357876660 408.0
54.380055670 426.0
54.402234680 397.0
54.424413690 392.0
54.446592700 398.0
54.468771710 371.0
54.490950720 405.0
54.513129730 383.0
54.535308740 413.0
54.557487750 395.0
54.579666760 385.0
54.601845770 392.0
54.624024780 385.0
54.646203790 385.0
54.668382800 379.0
54.690561810 359.0
54.712740820 405.0
54.734919830 395.0
54.757098840 422.0
54.779277850 389.0
54.801456860 421.0
54.823635870 388.0
54.845814880 413.0
54.867993890 422.0
54.890172900 412.0
54.912351910 358.0
54.934530920 409.0
54.956709930 399.0
54.978888940 438.0
55.001067950 375.0
55.023246960 428.0
55.045425970 411.0
55.067604980 389.0
55.089783990 413.0
55.111963000 394.0
55.134142010 409.0
55.156321020 410.0
55.178500030 397.0
55.200679040 404.0
55.222858050 361.0
55.245037060 379.0
55.267216070 395.0
55.289395080 430.0
55.311574090 397.0
55.333753100 385.0
55.355932110 394.0
55.378111120 440.0
55.400290130 393.0
55.422469140 379.0
55.444648150 349.0
55.466827160 412.0
55.489006170 371.0
55.511185180 419.0
55.533364190 399.0
55.555543200 402.0
55.577722210 354.0
55.599901220 368.0
55.622080230 380.0
55.644259240 408.0
55.666438250 398.0
55.688617260 420.0
55.710796270 393.0
55.732975280 367.0
55.755154290 376.0
55.777333300 400.0
55.799512310 365.0
55.821691320 382.0
55.843870330 414.0
55.866049340 401.0
55.888228350 383.0
55.910407360 386.0
55.932586370 406.0
55.954765380 411.0
55.976944390 412.0
55.999123400 353.0
