5.0001	2033.0000
5.0206	2061.0000
5.0411	2028.0000
5.0615	2072.0000
5.0820	1942.0000
5.1025	2007.0000
5.1230	1934.0000
5.1434	2043.0000
5.1639	1915.0000
5.1844	1860.0000
5.2049	1901.0000
5.2253	1898.0000
5.2458	1890.0000
5.2663	1899.0000
5.2868	1893.0000
5.3072	1803.0000
5.3277	1833.0000
5.3482	1778.0000
5.3687	1827.0000
5.3891	1861.0000
5.4096	1734.0000
5.4301	1770.0000
5.4506	1762.0000
5.4710	1727.0000
5.4915	1675.0000
5.5120	1701.0000
5.5325	1719.0000
5.5529	1719.0000
5.5734	1614.0000
5.5939	1678.0000
5.6144	1692.0000
5.6348	1642.0000
5.6553	1682.0000
5.6758	1518.0000
5.6963	1648.0000
5.7167	1563.0000
5.7372	1612.0000
5.7577	1628.0000
5.7782	1554.0000
5.7987	1585.0000
5.8191	1500.0000
5.8396	1541.0000
5.8601	1517.0000
5.8806	1581.0000
5.9010	1556.0000
5.9215	1552.0000
5.9420	1465.0000
5.9625	1493.0000
5.9829	1449.0000
6.0034	1434.0000
6.0239	1479.0000
6.0444	1404.0000
6.0648	1391.0000
6.0853	1491.0000
6.1058	1390.0000
6.1263	1424.0000
6.1467	1379.0000
6.1672	1383.0000
6.1877	1433.0000
6.2082	1392.0000
6.2286	1416.0000
6.2491	1392.0000
6.2696	1266.0000
6.2901	1374.0000
6.3105	1391.0000
6.3310	1351.0000
6.3515	1328.0000
6.3720	1302.0000
6.3924	1261.0000
6.4129	1339.0000
6.4334	1333.0000
6.4539	1346.0000
6.4743	1227.0000
6.4948	1220.0000
6.5153	1190.0000
6.5358	1216.0000
6.5562	1241.0000
6.5767	1269.0000
6.5972	1204.0000
6.6177	1167.0000
6.6382	1243.0000
6.6586	1176.0000
6.6791	1218.0000
6.6996	1177.0000
6.7201	1180.0000
6.7405	1127.0000
6.7610	1160.0000
6.7815	1171.0000
6.8020	1131.0000
6.8224	1154.0000
6.8429	1104.0000
6.8634	1146.0000
6.8839	1159.0000
6.9043	1123.0000
6.9248	1125.0000
6.9453	1060.0000
6.9658	1092.0000
6.9862	1092.0000
7.0067	1036.0000
7.0272	1119.0000
7.0477	1108.0000
7.0681	1114.0000
7.0886	1080.0000
7.1091	1058.0000
7.1296	1081.0000
7.1500	1020.0000
7.1705	1015.0000
7.1910	1055.0000
7.2115	1057.0000
7.2319	966.0000
7.2524	1021.0000
7.2729	1054.0000
7.2934	972.0000
7.3138	977.0000
7.3343	948.0000
7.3548	944.0000
7.3753	932.0000
7.3958	973.0000
7.4162	948.0000
7.4367	890.0000
7.4572	965.0000
7.4777	938.0000
7.4981	934.0000
7.5186	909.0000
7.5391	920.0000
7.5596	919.0000
7.5800	938.0000
7.6005	907.0000
7.6210	894.0000
7.6415	929.0000
7.6619	905.0000
7.6824	888.0000
7.7029	887.0000
7.7234	940.0000
7.7438	874.0000
7.7643	884.0000
7.7848	837.0000
7.8053	836.0000
7.8257	828.0000
7.8462	841.0000
7.8667	869.0000
7.8872	794.0000
7.9076	786.0000
7.9281	841.0000
7.9486	793.0000
7.9691	800.0000
7.9895	769.0000
8.0100	832.0000
8.0305	753.0000
8.0510	781.0000
8.0714	788.0000
8.0919	773.0000
8.1124	749.0000
8.1329	765.0000
8.1533	778.0000
8.1738	795.0000
8.1943	794.0000
8.2148	762.0000
8.2353	734.0000
8.2557	700.0000
8.2762	783.0000
8.2967	709.0000
8.3172	750.0000
8.3376	753.0000
8.3581	700.0000
8.3786	710.0000
8.3991	751.0000
8.4195	742.0000
8.4400	748.0000
8.4605	752.0000
8.4810	688.0000
8.5014	694.0000
8.5219	704.0000
8.5424	710.0000
8.5629	683.0000
8.5833	680.0000
8.6038	747.0000
8.6243	635.0000
8.6448	661.0000
8.6652	645.0000
8.6857	676.0000
8.7062	714.0000
8.7267	642.0000
8.7471	620.0000
8.7676	638.0000
8.7881	621.0000
8.8086	690.0000
8.8290	637.0000
8.8495	602.0000
8.8700	658.0000
8.8905	652.0000
8.9109	571.0000
8.9314	600.0000
8.9519	637.0000
8.9724	641.0000
8.9929	618.0000
9.0133	599.0000
9.0338	636.0000
9.0543	639.0000
9.0748	594.0000
9.0952	626.0000
9.1157	605.0000
9.1362	634.0000
9.1567	578.0000
9.1771	599.0000
9.1976	597.0000
9.2181	569.0000
9.2386	591.0000
9.2590	578.0000
9.2795	625.0000
9.3000	577.0000
9.3205	582.0000
9.3409	566.0000
9.3614	580.0000
9.3819	593.0000
9.4024	587.0000
9.4228	595.0000
9.4433	570.0000
9.4638	564.0000
9.4843	564.0000
9.5047	574.0000
9.5252	546.0000
9.5457	544.0000
9.5662	564.0000
9.5866	549.0000
9.6071	529.0000
9.6276	572.0000
9.6481	537.0000
9.6685	515.0000
9.6890	565.0000
9.7095	505.0000
9.7300	532.0000
9.7505	542.0000
9.7709	550.0000
9.7914	542.0000
9.8119	484.0000
9.8324	528.0000
9.8528	538.0000
9.8733	506.0000
9.8938	505.0000
9.9143	544.0000
9.9347	499.0000
9.9552	532.0000
9.9757	496.0000
9.9962	516.0000
10.0166	496.0000
10.0371	503.0000
10.0576	523.0000
10.0781	526.0000
10.0985	487.0000
10.1190	504.0000
10.1395	502.0000
10.1600	546.0000
10.1804	501.0000
10.2009	546.0000
10.2214	496.0000
10.2419	556.0000
10.2623	539.0000
10.2828	512.0000
10.3033	462.0000
10.3238	520.0000
10.3442	523.0000
10.3647	508.0000
10.3852	509.0000
10.4057	492.0000
10.4261	498.0000
10.4466	465.0000
10.4671	460.0000
10.4876	481.0000
10.5080	485.0000
10.5285	497.0000
10.5490	525.0000
10.5695	471.0000
10.5900	481.0000
10.6104	456.0000
10.6309	487.0000
10.6514	488.0000
10.6719	463.0000
10.6923	493.0000
10.7128	472.0000
10.7333	503.0000
10.7538	456.0000
10.7742	494.0000
10.7947	482.0000
10.8152	473.0000
10.8357	514.0000
10.8561	480.0000
10.8766	447.0000
10.8971	486.0000
10.9176	472.0000
10.9380	457.0000
10.9585	450.0000
10.9790	454.0000
10.9995	472.0000
11.0199	489.0000
11.0404	503.0000
11.0609	469.0000
11.0814	448.0000
11.1018	453.0000
11.1223	489.0000
11.1428	501.0000
11.1633	478.0000
11.1837	492.0000
11.2042	452.0000
11.2247	471.0000
11.2452	464.0000
11.2656	466.0000
11.2861	505.0000
11.3066	454.0000
11.3271	467.0000
11.3476	475.0000
11.3680	432.0000
11.3885	450.0000
11.4090	460.0000
11.4295	490.0000
11.4499	469.0000
11.4704	460.0000
11.4909	485.0000
11.5114	461.0000
11.5318	419.0000
11.5523	453.0000
11.5728	485.0000
11.5933	453.0000
11.6137	475.0000
11.6342	505.0000
11.6547	444.0000
11.6752	440.0000
11.6956	507.0000
11.7161	432.0000
11.7366	476.0000
11.7571	464.0000
11.7775	447.0000
11.7980	452.0000
11.8185	442.0000
11.8390	463.0000
11.8594	470.0000
11.8799	468.0000
11.9004	427.0000
11.9209	451.0000
11.9413	466.0000
11.9618	440.0000
11.9823	452.0000
12.0028	478.0000
12.0232	465.0000
12.0437	484.0000
12.0642	456.0000
12.0847	480.0000
12.1051	472.0000
12.1256	430.0000
12.1461	491.0000
12.1666	447.0000
12.1871	467.0000
12.2075	505.0000
12.2280	479.0000
12.2485	449.0000
12.2690	473.0000
12.2894	447.0000
12.3099	470.0000
12.3304	467.0000
12.3509	434.0000
12.3713	454.0000
12.3918	473.0000
12.4123	471.0000
12.4328	523.0000
12.4532	472.0000
12.4737	487.0000
12.4942	453.0000
12.5147	492.0000
12.5351	483.0000
12.5556	464.0000
12.5761	492.0000
12.5966	496.0000
12.6170	470.0000
12.6375	463.0000
12.6580	437.0000
12.6785	463.0000
12.6989	458.0000
12.7194	458.0000
12.7399	444.0000
12.7604	448.0000
12.7808	451.0000
12.8013	426.0000
12.8218	438.0000
12.8423	497.0000
12.8627	480.0000
12.8832	430.0000
12.9037	448.0000
12.9242	455.0000
12.9447	456.0000
12.9651	473.0000
12.9856	474.0000
13.0061	473.0000
13.0266	453.0000
13.0470	454.0000
13.0675	475.0000
13.0880	472.0000
13.1085	459.0000
13.1289	467.0000
13.1494	423.0000
13.1699	473.0000
13.1904	474.0000
13.2108	495.0000
13.2313	446.0000
13.2518	453.0000
13.2723	462.0000
13.2927	478.0000
13.3132	472.0000
13.3337	459.0000
13.3542	461.0000
13.3746	455.0000
13.3951	427.0000
13.4156	468.0000
13.4361	452.0000
13.4565	509.0000
13.4770	467.0000
13.4975	478.0000
13.5180	460.0000
13.5384	469.0000
13.5589	461.0000
13.5794	477.0000
13.5999	462.0000
13.6203	497.0000
13.6408	436.0000
13.6613	475.0000
13.6818	495.0000
13.7023	456.0000
13.7227	473.0000
13.7432	462.0000
13.7637	463.0000
13.7842	457.0000
13.8046	463.0000
13.8251	437.0000
13.8456	456.0000
13.8661	464.0000
13.8865	494.0000
13.9070	449.0000
13.9275	460.0000
13.9480	512.0000
13.9684	457.0000
13.9889	481.0000
14.0094	476.0000
14.0299	493.0000
14.0503	483.0000
14.0708	468.0000
14.0913	472.0000
14.1118	481.0000
14.1322	480.0000
14.1527	445.0000
14.1732	500.0000
14.1937	459.0000
14.2141	447.0000
14.2346	490.0000
14.2551	464.0000
14.2756	468.0000
14.2960	501.0000
14.3165	487.0000
14.3370	451.0000
14.3575	470.0000
14.3779	462.0000
14.3984	432.0000
14.4189	443.0000
14.4394	477.0000
14.4598	511.0000
14.4803	460.0000
14.5008	465.0000
14.5213	430.0000
14.5418	505.0000
14.5622	461.0000
14.5827	479.0000
14.6032	500.0000
14.6237	499.0000
14.6441	474.0000
14.6646	452.0000
14.6851	480.0000
14.7056	510.0000
14.7260	482.0000
14.7465	446.0000
14.7670	487.0000
14.7875	485.0000
14.8079	502.0000
14.8284	479.0000
14.8489	492.0000
14.8694	476.0000
14.8898	456.0000
14.9103	493.0000
14.9308	496.0000
14.9513	438.0000
14.9717	467.0000
14.9922	447.0000
15.0127	472.0000
15.0332	520.0000
15.0536	480.0000
15.0741	470.0000
15.0946	460.0000
15.1151	436.0000
15.1355	480.0000
15.1560	523.0000
15.1765	499.0000
15.1970	474.0000
15.2174	467.0000
15.2379	489.0000
15.2584	541.0000
15.2789	503.0000
15.2994	452.0000
15.3198	482.0000
15.3403	492.0000
15.3608	508.0000
15.3813	466.0000
15.4017	441.0000
15.4222	462.0000
15.4427	479.0000
15.4632	530.0000
15.4836	510.0000
15.5041	497.0000
15.5246	503.0000
15.5451	475.0000
15.5655	479.0000
15.5860	485.0000
15.6065	497.0000
15.6270	498.0000
15.6474	484.0000
15.6679	495.0000
15.6884	514.0000
15.7089	500.0000
15.7293	477.0000
15.7498	502.0000
15.7703	540.0000
15.7908	500.0000
15.8112	486.0000
15.8317	539.0000
15.8522	485.0000
15.8727	551.0000
15.8931	503.0000
15.9136	525.0000
15.9341	568.0000
15.9546	520.0000
15.9750	512.0000
15.9955	530.0000
16.0160	546.0000
16.0365	532.0000
16.0569	494.0000
16.0774	511.0000
16.0979	514.0000
16.1184	577.0000
16.1389	511.0000
16.1593	521.0000
16.1798	532.0000
16.2003	542.0000
16.2208	518.0000
16.2412	532.0000
16.2617	500.0000
16.2822	535.0000
16.3027	535.0000
16.3231	532.0000
16.3436	515.0000
16.3641	517.0000
16.3846	524.0000
16.4050	531.0000
16.4255	486.0000
16.4460	546.0000
16.4665	520.0000
16.4869	527.0000
16.5074	486.0000
16.5279	474.0000
16.5484	469.0000
16.5688	491.0000
16.5893	511.0000
16.6098	498.0000
16.6303	525.0000
16.6507	507.0000
16.6712	508.0000
16.6917	513.0000
16.7122	479.0000
16.7326	469.0000
16.7531	497.0000
16.7736	543.0000
16.7941	534.0000
16.8145	504.0000
16.8350	478.0000
16.8555	524.0000
16.8760	503.0000
16.8965	547.0000
16.9169	479.0000
16.9374	482.0000
16.9579	480.0000
16.9784	478.0000
16.9988	528.0000
17.0193	487.0000
17.0398	501.0000
17.0603	494.0000
17.0807	475.0000
17.1012	467.0000
17.1217	473.0000
17.1422	488.0000
17.1626	477.0000
17.1831	476.0000
17.2036	530.0000
17.2241	501.0000
17.2445	498.0000
17.2650	513.0000
17.2855	495.0000
17.3060	496.0000
17.3264	481.0000
17.3469	497.0000
17.3674	434.0000
17.3879	519.0000
17.4083	518.0000
17.4288	509.0000
17.4493	486.0000
17.4698	510.0000
17.4902	460.0000
17.5107	496.0000
17.5312	502.0000
17.5517	526.0000
17.5721	505.0000
17.5926	512.0000
17.6131	476.0000
17.6336	530.0000
17.6540	481.0000
17.6745	514.0000
17.6950	517.0000
17.7155	499.0000
17.7360	492.0000
17.7564	484.0000
17.7769	512.0000
17.7974	496.0000
17.8179	512.0000
17.8383	510.0000
17.8588	542.0000
17.8793	498.0000
17.8998	500.0000
17.9202	501.0000
17.9407	491.0000
17.9612	501.0000
17.9817	527.0000
18.0021	532.0000
18.0226	519.0000
18.0431	503.0000
18.0636	504.0000
18.0840	443.0000
18.1045	534.0000
18.1250	530.0000
18.1455	504.0000
18.1659	487.0000
18.1864	496.0000
18.2069	498.0000
18.2274	512.0000
18.2478	516.0000
18.2683	544.0000
18.2888	519.0000
18.3093	544.0000
18.3297	510.0000
18.3502	499.0000
18.3707	512.0000
18.3912	480.0000
18.4116	501.0000
18.4321	509.0000
18.4526	516.0000
18.4731	548.0000
18.4936	501.0000
18.5140	521.0000
18.5345	523.0000
18.5550	488.0000
18.5755	518.0000
18.5959	506.0000
18.6164	492.0000
18.6369	515.0000
18.6574	489.0000
18.6778	496.0000
18.6983	507.0000
18.7188	539.0000
18.7393	513.0000
18.7597	536.0000
18.7802	482.0000
18.8007	533.0000
18.8212	507.0000
18.8416	532.0000
18.8621	511.0000
18.8826	544.0000
18.9031	535.0000
18.9235	518.0000
18.9440	537.0000
18.9645	490.0000
18.9850	487.0000
19.0054	472.0000
19.0259	519.0000
19.0464	498.0000
19.0669	538.0000
19.0873	554.0000
19.1078	491.0000
19.1283	511.0000
19.1488	530.0000
19.1692	516.0000
19.1897	530.0000
19.2102	502.0000
19.2307	519.0000
19.2512	528.0000
19.2716	508.0000
19.2921	535.0000
19.3126	491.0000
19.3331	533.0000
19.3535	520.0000
19.3740	487.0000
19.3945	470.0000
19.4150	518.0000
19.4354	539.0000
19.4559	509.0000
19.4764	512.0000
19.4969	488.0000
19.5173	497.0000
19.5378	511.0000
19.5583	515.0000
19.5788	511.0000
19.5992	504.0000
19.6197	520.0000
19.6402	508.0000
19.6607	520.0000
19.6811	537.0000
19.7016	494.0000
19.7221	532.0000
19.7426	546.0000
19.7630	542.0000
19.7835	536.0000
19.8040	516.0000
19.8245	550.0000
19.8449	531.0000
19.8654	557.0000
19.8859	522.0000
19.9064	534.0000
19.9268	527.0000
19.9473	536.0000
19.9678	515.0000
19.9883	546.0000
20.0087	533.0000
20.0292	525.0000
20.0497	508.0000
20.0702	501.0000
20.0907	526.0000
20.1111	539.0000
20.1316	501.0000
20.1521	549.0000
20.1726	547.0000
20.1930	565.0000
20.2135	523.0000
20.2340	508.0000
20.2545	521.0000
20.2749	489.0000
20.2954	485.0000
20.3159	509.0000
20.3364	518.0000
20.3568	521.0000
20.3773	484.0000
20.3978	525.0000
20.4183	518.0000
20.4387	518.0000
20.4592	504.0000
20.4797	588.0000
20.5002	509.0000
20.5206	568.0000
20.5411	557.0000
20.5616	506.0000
20.5821	534.0000
20.6025	552.0000
20.6230	533.0000
20.6435	554.0000
20.6640	560.0000
20.6844	501.0000
20.7049	534.0000
20.7254	505.0000
20.7459	524.0000
20.7663	559.0000
20.7868	554.0000
20.8073	508.0000
20.8278	536.0000
20.8483	510.0000
20.8687	590.0000
20.8892	573.0000
20.9097	513.0000
20.9302	510.0000
20.9506	570.0000
20.9711	512.0000
20.9916	532.0000
21.0121	571.0000
21.0325	533.0000
21.0530	534.0000
21.0735	519.0000
21.0940	531.0000
21.1144	513.0000
21.1349	563.0000
21.1554	522.0000
21.1759	505.0000
21.1963	498.0000
21.2168	491.0000
21.2373	522.0000
21.2578	555.0000
21.2782	558.0000
21.2987	536.0000
21.3192	540.0000
21.3397	543.0000
21.3601	559.0000
21.3806	570.0000
21.4011	543.0000
21.4216	537.0000
21.4420	562.0000
21.4625	574.0000
21.4830	561.0000
21.5035	536.0000
21.5239	539.0000
21.5444	556.0000
21.5649	532.0000
21.5854	540.0000
21.6058	509.0000
21.6263	531.0000
21.6468	580.0000
21.6673	533.0000
21.6878	555.0000
21.7082	539.0000
21.7287	513.0000
21.7492	551.0000
21.7697	527.0000
21.7901	521.0000
21.8106	521.0000
21.8311	569.0000
21.8516	528.0000
21.8720	538.0000
21.8925	550.0000
21.9130	553.0000
21.9335	544.0000
21.9539	596.0000
21.9744	548.0000
21.9949	533.0000
22.0154	553.0000
22.0358	587.0000
22.0563	611.0000
22.0768	544.0000
22.0973	592.0000
22.1177	534.0000
22.1382	514.0000
22.1587	557.0000
22.1792	568.0000
22.1996	553.0000
22.2201	568.0000
22.2406	567.0000
22.2611	569.0000
22.2815	526.0000
22.3020	556.0000
22.3225	572.0000
22.3430	544.0000
22.3634	569.0000
22.3839	540.0000
22.4044	582.0000
22.4249	561.0000
22.4454	595.0000
22.4658	553.0000
22.4863	584.0000
22.5068	596.0000
22.5273	591.0000
22.5477	545.0000
22.5682	549.0000
22.5887	566.0000
22.6092	597.0000
22.6296	533.0000
22.6501	533.0000
22.6706	557.0000
22.6911	534.0000
22.7115	554.0000
22.7320	594.0000
22.7525	542.0000
22.7730	598.0000
22.7934	559.0000
22.8139	543.0000
22.8344	582.0000
22.8549	548.0000
22.8753	590.0000
22.8958	584.0000
22.9163	555.0000
22.9368	594.0000
22.9572	592.0000
22.9777	568.0000
22.9982	602.0000
23.0187	571.0000
23.0391	570.0000
23.0596	583.0000
23.0801	562.0000
23.1006	567.0000
23.1210	584.0000
23.1415	556.0000
23.1620	540.0000
23.1825	605.0000
23.2030	588.0000
23.2234	568.0000
23.2439	598.0000
23.2644	544.0000
23.2849	550.0000
23.3053	573.0000
23.3258	576.0000
23.3463	594.0000
23.3668	554.0000
23.3872	572.0000
23.4077	545.0000
23.4282	582.0000
23.4487	549.0000
23.4691	564.0000
23.4896	574.0000
23.5101	557.0000
23.5306	554.0000
23.5510	613.0000
23.5715	624.0000
23.5920	579.0000
23.6125	588.0000
23.6329	585.0000
23.6534	595.0000
23.6739	579.0000
23.6944	607.0000
23.7148	574.0000
23.7353	602.0000
23.7558	593.0000
23.7763	610.0000
23.7967	599.0000
23.8172	619.0000
23.8377	621.0000
23.8582	543.0000
23.8786	563.0000
23.8991	584.0000
23.9196	571.0000
23.9401	633.0000
23.9605	568.0000
23.9810	584.0000
24.0015	622.0000
24.0220	569.0000
24.0425	599.0000
24.0629	558.0000
24.0834	605.0000
24.1039	566.0000
24.1244	577.0000
24.1448	619.0000
24.1653	592.0000
24.1858	575.0000
24.2063	566.0000
24.2267	591.0000
24.2472	629.0000
24.2677	585.0000
24.2882	606.0000
24.3086	651.0000
24.3291	593.0000
24.3496	602.0000
24.3701	575.0000
24.3905	611.0000
24.4110	563.0000
24.4315	555.0000
24.4520	572.0000
24.4724	576.0000
24.4929	605.0000
24.5134	588.0000
24.5339	627.0000
24.5543	586.0000
24.5748	612.0000
24.5953	607.0000
24.6158	578.0000
24.6362	604.0000
24.6567	577.0000
24.6772	582.0000
24.6977	582.0000
24.7181	580.0000
24.7386	619.0000
24.7591	581.0000
24.7796	612.0000
24.8001	594.0000
24.8205	618.0000
24.8410	591.0000
24.8615	625.0000
24.8820	591.0000
24.9024	592.0000
24.9229	626.0000
24.9434	577.0000
24.9639	622.0000
24.9843	601.0000
25.0048	583.0000
25.0253	627.0000
25.0458	596.0000
25.0662	594.0000
25.0867	612.0000
25.1072	635.0000
25.1277	634.0000
25.1481	604.0000
25.1686	615.0000
25.1891	566.0000
25.2096	623.0000
25.2300	581.0000
25.2505	592.0000
25.2710	653.0000
25.2915	618.0000
25.3119	602.0000
25.3324	637.0000
25.3529	578.0000
25.3734	612.0000
25.3938	635.0000
25.4143	607.0000
25.4348	604.0000
25.4553	598.0000
25.4757	621.0000
25.4962	574.0000
25.5167	621.0000
25.5372	599.0000
25.5576	627.0000
25.5781	563.0000
25.5986	593.0000
25.6191	596.0000
25.6396	587.0000
25.6600	582.0000
25.6805	591.0000
25.7010	587.0000
25.7215	584.0000
25.7419	606.0000
25.7624	576.0000
25.7829	608.0000
25.8034	598.0000
25.8238	549.0000
25.8443	612.0000
25.8648	632.0000
25.8853	573.0000
25.9057	589.0000
25.9262	510.0000
25.9467	578.0000
25.9672	567.0000
25.9876	563.0000
26.0081	569.0000
26.0286	578.0000
26.0491	604.0000
26.0695	658.0000
26.0900	601.0000
26.1105	604.0000
26.1310	627.0000
26.1514	550.0000
26.1719	585.0000
26.1924	587.0000
26.2129	589.0000
26.2333	591.0000
26.2538	628.0000
26.2743	546.0000
26.2948	578.0000
26.3152	622.0000
26.3357	539.0000
26.3562	600.0000
26.3767	619.0000
26.3972	588.0000
26.4176	588.0000
26.4381	553.0000
26.4586	564.0000
26.4791	583.0000
26.4995	631.0000
26.5200	564.0000
26.5405	588.0000
26.5610	580.0000
26.5814	562.0000
26.6019	595.0000
26.6224	582.0000
26.6429	595.0000
26.6633	615.0000
26.6838	611.0000
26.7043	595.0000
26.7248	567.0000
26.7452	532.0000
26.7657	603.0000
26.7862	587.0000
26.8067	585.0000
26.8271	582.0000
26.8476	525.0000
26.8681	615.0000
26.8886	565.0000
26.9090	537.0000
26.9295	541.0000
26.9500	562.0000
26.9705	571.0000
26.9909	606.0000
27.0114	564.0000
27.0319	566.0000
27.0524	548.0000
27.0728	572.0000
27.0933	570.0000
27.1138	545.0000
27.1343	578.0000
27.1548	582.0000
27.1752	572.0000
27.1957	563.0000
27.2162	616.0000
27.2367	588.0000
27.2571	583.0000
27.2776	569.0000
27.2981	584.0000
27.3186	565.0000
27.3390	581.0000
27.3595	574.0000
27.3800	553.0000
27.4005	559.0000
27.4209	580.0000
27.4414	586.0000
27.4619	576.0000
27.4824	553.0000
27.5028	534.0000
27.5233	587.0000
27.5438	577.0000
27.5643	566.0000
27.5847	578.0000
27.6052	557.0000
27.6257	582.0000
27.6462	572.0000
27.6666	587.0000
27.6871	587.0000
27.7076	585.0000
27.7281	583.0000
27.7485	568.0000
27.7690	581.0000
27.7895	576.0000
27.8100	583.0000
27.8304	527.0000
27.8509	556.0000
27.8714	597.0000
27.8919	589.0000
27.9123	571.0000
27.9328	609.0000
27.9533	588.0000
27.9738	578.0000
27.9943	533.0000
28.0147	552.0000
28.0352	574.0000
28.0557	533.0000
28.0762	564.0000
28.0966	571.0000
28.1171	601.0000
28.1376	558.0000
28.1581	579.0000
28.1785	543.0000
28.1990	529.0000
28.2195	557.0000
28.2400	560.0000
28.2604	561.0000
28.2809	548.0000
28.3014	561.0000
28.3219	565.0000
28.3423	577.0000
28.3628	611.0000
28.3833	606.0000
28.4038	557.0000
28.4242	566.0000
28.4447	585.0000
28.4652	534.0000
28.4857	565.0000
28.5061	575.0000
28.5266	543.0000
28.5471	572.0000
28.5676	589.0000
28.5880	542.0000
28.6085	563.0000
28.6290	577.0000
28.6495	545.0000
28.6699	554.0000
28.6904	582.0000
28.7109	574.0000
28.7314	520.0000
28.7519	577.0000
28.7723	557.0000
28.7928	555.0000
28.8133	540.0000
28.8338	545.0000
28.8542	568.0000
28.8747	536.0000
28.8952	547.0000
28.9157	585.0000
28.9361	504.0000
28.9566	573.0000
28.9771	593.0000
28.9976	582.0000
29.0180	542.0000
29.0385	559.0000
29.0590	559.0000
29.0795	572.0000
29.0999	580.0000
29.1204	573.0000
29.1409	555.0000
29.1614	520.0000
29.1818	590.0000
29.2023	591.0000
29.2228	624.0000
29.2433	592.0000
29.2637	594.0000
29.2842	540.0000
29.3047	568.0000
29.3252	566.0000
29.3456	584.0000
29.3661	576.0000
29.3866	585.0000
29.4071	551.0000
29.4275	560.0000
29.4480	577.0000
29.4685	557.0000
29.4890	564.0000
29.5094	558.0000
29.5299	565.0000
29.5504	525.0000
29.5709	574.0000
29.5914	567.0000
29.6118	569.0000
29.6323	518.0000
29.6528	532.0000
29.6733	595.0000
29.6937	584.0000
29.7142	597.0000
29.7347	550.0000
29.7552	539.0000
29.7756	561.0000
29.7961	539.0000
29.8166	586.0000
29.8371	518.0000
29.8575	568.0000
29.8780	598.0000
29.8985	576.0000
29.9190	573.0000
29.9394	581.0000
29.9599	541.0000
29.9804	558.0000
30.0009	545.0000
30.0213	558.0000
30.0418	560.0000
30.0623	562.0000
30.0828	570.0000
30.1032	577.0000
30.1237	603.0000
30.1442	606.0000
30.1647	576.0000
30.1851	526.0000
30.2056	603.0000
30.2261	523.0000
30.2466	593.0000
30.2670	585.0000
30.2875	566.0000
30.3080	571.0000
30.3285	600.0000
30.3490	536.0000
30.3694	572.0000
30.3899	559.0000
30.4104	601.0000
30.4309	561.0000
30.4513	583.0000
30.4718	563.0000
30.4923	575.0000
30.5128	595.0000
30.5332	550.0000
30.5537	612.0000
30.5742	602.0000
30.5947	617.0000
30.6151	561.0000
30.6356	563.0000
30.6561	580.0000
30.6766	544.0000
30.6970	603.0000
30.7175	574.0000
30.7380	593.0000
30.7585	611.0000
30.7789	565.0000
30.7994	578.0000
30.8199	618.0000
30.8404	615.0000
30.8608	611.0000
30.8813	566.0000
30.9018	537.0000
30.9223	578.0000
30.9427	571.0000
30.9632	556.0000
30.9837	630.0000
31.0042	604.0000
31.0246	589.0000
31.0451	621.0000
31.0656	624.0000
31.0861	577.0000
31.1066	592.0000
31.1270	604.0000
31.1475	565.0000
31.1680	630.0000
31.1885	558.0000
31.2089	602.0000
31.2294	605.0000
31.2499	591.0000
31.2704	598.0000
31.2908	600.0000
31.3113	591.0000
31.3318	549.0000
31.3523	582.0000
31.3727	621.0000
31.3932	597.0000
31.4137	607.0000
31.4342	584.0000
31.4546	582.0000
31.4751	600.0000
31.4956	614.0000
31.5161	565.0000
31.5365	623.0000
31.5570	623.0000
31.5775	600.0000
31.5980	551.0000
31.6184	595.0000
31.6389	630.0000
31.6594	593.0000
31.6799	635.0000
31.7003	601.0000
31.7208	612.0000
31.7413	587.0000
31.7618	626.0000
31.7822	619.0000
31.8027	623.0000
31.8232	610.0000
31.8437	563.0000
31.8641	619.0000
31.8846	627.0000
31.9051	628.0000
31.9256	611.0000
31.9461	619.0000
31.9665	613.0000
31.9870	593.0000
32.0075	648.0000
32.0280	609.0000
32.0484	609.0000
32.0689	585.0000
32.0894	629.0000
32.1099	596.0000
32.1303	645.0000
32.1508	619.0000
32.1713	618.0000
32.1918	637.0000
32.2122	595.0000
32.2327	621.0000
32.2532	587.0000
32.2737	614.0000
32.2941	642.0000
32.3146	606.0000
32.3351	571.0000
32.3556	594.0000
32.3760	575.0000
32.3965	647.0000
32.4170	614.0000
32.4375	632.0000
32.4579	627.0000
32.4784	598.0000
32.4989	580.0000
32.5194	591.0000
32.5398	638.0000
32.5603	569.0000
32.5808	624.0000
32.6013	600.0000
32.6217	623.0000
32.6422	591.0000
32.6627	600.0000
32.6832	627.0000
32.7037	585.0000
32.7241	589.0000
32.7446	591.0000
32.7651	635.0000
32.7856	584.0000
32.8060	636.0000
32.8265	620.0000
32.8470	620.0000
32.8675	584.0000
32.8879	644.0000
32.9084	597.0000
32.9289	615.0000
32.9494	646.0000
32.9698	595.0000
32.9903	618.0000
33.0108	590.0000
33.0313	557.0000
33.0517	581.0000
33.0722	637.0000
33.0927	629.0000
33.1132	629.0000
33.1336	596.0000
33.1541	612.0000
33.1746	643.0000
33.1951	588.0000
33.2155	647.0000
33.2360	618.0000
33.2565	580.0000
33.2770	637.0000
33.2974	587.0000
33.3179	674.0000
33.3384	643.0000
33.3589	627.0000
33.3793	598.0000
33.3998	637.0000
33.4203	614.0000
33.4408	560.0000
33.4612	581.0000
33.4817	598.0000
33.5022	639.0000
33.5227	621.0000
33.5432	585.0000
33.5636	613.0000
33.5841	603.0000
33.6046	586.0000
33.6251	631.0000
33.6455	625.0000
33.6660	590.0000
33.6865	615.0000
33.7070	596.0000
33.7274	611.0000
33.7479	621.0000
33.7684	595.0000
33.7889	656.0000
33.8093	665.0000
33.8298	630.0000
33.8503	653.0000
33.8708	629.0000
33.8912	604.0000
33.9117	624.0000
33.9322	613.0000
33.9527	599.0000
33.9731	620.0000
33.9936	671.0000
34.0141	629.0000
34.0346	630.0000
34.0550	596.0000
34.0755	566.0000
34.0960	663.0000
34.1165	650.0000
34.1369	641.0000
34.1574	612.0000
34.1779	674.0000
34.1984	622.0000
34.2188	610.0000
34.2393	597.0000
34.2598	597.0000
34.2803	644.0000
34.3008	596.0000
34.3212	600.0000
34.3417	589.0000
34.3622	649.0000
34.3827	628.0000
34.4031	615.0000
34.4236	614.0000
34.4441	624.0000
34.4646	656.0000
34.4850	683.0000
34.5055	638.0000
34.5260	645.0000
34.5465	636.0000
34.5669	649.0000
34.5874	638.0000
34.6079	652.0000
34.6284	619.0000
34.6488	620.0000
34.6693	637.0000
34.6898	632.0000
34.7103	657.0000
34.7307	627.0000
34.7512	668.0000
34.7717	628.0000
34.7922	595.0000
34.8126	644.0000
34.8331	646.0000
34.8536	660.0000
34.8741	640.0000
34.8945	648.0000
34.9150	638.0000
34.9355	622.0000
34.9560	632.0000
34.9764	637.0000
34.9969	662.0000
35.0174	690.0000
35.0379	655.0000
35.0583	692.0000
35.0788	672.0000
35.0993	702.0000
35.1198	717.0000
35.1403	654.0000
35.1607	627.0000
35.1812	709.0000
35.2017	651.0000
35.2222	641.0000
35.2426	677.0000
35.2631	681.0000
35.2836	638.0000
35.3041	669.0000
35.3245	682.0000
35.3450	654.0000
35.3655	629.0000
35.3860	620.0000
35.4064	631.0000
35.4269	719.0000
35.4474	696.0000
35.4679	597.0000
35.4883	600.0000
35.5088	617.0000
35.5293	683.0000
35.5498	650.0000
35.5702	689.0000
35.5907	683.0000
35.6112	667.0000
35.6317	652.0000
35.6521	667.0000
35.6726	727.0000
35.6931	722.0000
35.7136	699.0000
35.7340	664.0000
35.7545	694.0000
35.7750	694.0000
35.7955	704.0000
35.8159	683.0000
35.8364	728.0000
35.8569	697.0000
35.8774	723.0000
35.8979	684.0000
35.9183	729.0000
35.9388	716.0000
35.9593	701.0000
35.9798	691.0000
36.0002	648.0000
36.0207	671.0000
36.0412	689.0000
36.0617	715.0000
36.0821	676.0000
36.1026	704.0000
36.1231	669.0000
36.1436	679.0000
36.1640	752.0000
36.1845	665.0000
36.2050	698.0000
36.2255	700.0000
36.2459	714.0000
36.2664	716.0000
36.2869	719.0000
36.3074	733.0000
36.3278	671.0000
36.3483	696.0000
36.3688	685.0000
36.3893	705.0000
36.4097	700.0000
36.4302	697.0000
36.4507	763.0000
36.4712	732.0000
36.4916	724.0000
36.5121	721.0000
36.5326	758.0000
36.5531	712.0000
36.5735	715.0000
36.5940	753.0000
36.6145	739.0000
36.6350	750.0000
36.6555	762.0000
36.6759	764.0000
36.6964	775.0000
36.7169	744.0000
36.7374	744.0000
36.7578	732.0000
36.7783	755.0000
36.7988	804.0000
36.8193	743.0000
36.8397	749.0000
36.8602	740.0000
36.8807	761.0000
36.9012	784.0000
36.9216	755.0000
36.9421	731.0000
36.9626	745.0000
36.9831	778.0000
37.0035	816.0000
37.0240	743.0000
37.0445	785.0000
37.0650	759.0000
37.0854	861.0000
37.1059	778.0000
37.1264	786.0000
37.1469	792.0000
37.1673	765.0000
37.1878	767.0000
37.2083	805.0000
37.2288	801.0000
37.2492	774.0000
37.2697	751.0000
37.2902	817.0000
37.3107	838.0000
37.3311	832.0000
37.3516	808.0000
37.3721	802.0000
37.3926	806.0000
37.4130	842.0000
37.4335	797.0000
37.4540	813.0000
37.4745	846.0000
37.4950	804.0000
37.5154	856.0000
37.5359	859.0000
37.5564	850.0000
37.5769	823.0000
37.5973	801.0000
37.6178	821.0000
37.6383	893.0000
37.6588	882.0000
37.6792	877.0000
37.6997	875.0000
37.7202	887.0000
37.7407	884.0000
37.7611	879.0000
37.7816	942.0000
37.8021	888.0000
37.8226	914.0000
37.8430	870.0000
37.8635	929.0000
37.8840	900.0000
37.9045	990.0000
37.9249	916.0000
37.9454	969.0000
37.9659	899.0000
37.9864	951.0000
38.0068	953.0000
38.0273	980.0000
38.0478	919.0000
38.0683	938.0000
38.0887	962.0000
38.1092	965.0000
38.1297	980.0000
38.1502	950.0000
38.1706	1039.0000
38.1911	955.0000
38.2116	1060.0000
38.2321	980.0000
38.2526	988.0000
38.2730	1042.0000
38.2935	964.0000
38.3140	1021.0000
38.3345	1059.0000
38.3549	1050.0000
38.3754	1080.0000
38.3959	1069.0000
38.4164	1046.0000
38.4368	1106.0000
38.4573	1050.0000
38.4778	1126.0000
38.4983	1094.0000
38.5187	1125.0000
38.5392	1107.0000
38.5597	1087.0000
38.5802	1134.0000
38.6006	1100.0000
38.6211	1125.0000
38.6416	1098.0000
38.6621	1166.0000
38.6825	1105.0000
38.7030	1178.0000
38.7235	1181.0000
38.7440	1294.0000
38.7644	1252.0000
38.7849	1198.0000
38.8054	1209.0000
38.8259	1260.0000
38.8463	1235.0000
38.8668	1285.0000
38.8873	1195.0000
38.9078	1294.0000
38.9282	1298.0000
38.9487	1312.0000
38.9692	1260.0000
38.9897	1280.0000
39.0101	1304.0000
39.0306	1326.0000
39.0511	1338.0000
39.0716	1405.0000
39.0921	1354.0000
39.1125	1470.0000
39.1330	1427.0000
39.1535	1393.0000
39.1740	1514.0000
39.1944	1458.0000
39.2149	1507.0000
39.2354	1506.0000
39.2559	1495.0000
39.2763	1524.0000
39.2968	1482.0000
39.3173	1554.0000
39.3378	1459.0000
39.3582	1608.0000
39.3787	1518.0000
39.3992	1573.0000
39.4197	1574.0000
39.4401	1630.0000
39.4606	1677.0000
39.4811	1615.0000
39.5016	1615.0000
39.5220	1661.0000
39.5425	1740.0000
39.5630	1722.0000
39.5835	1775.0000
39.6039	1749.0000
39.6244	1802.0000
39.6449	1820.0000
39.6654	1773.0000
39.6858	1799.0000
39.7063	1900.0000
39.7268	1786.0000
39.7473	1875.0000
39.7677	1958.0000
39.7882	1867.0000
39.8087	1912.0000
39.8292	1930.0000
39.8497	1920.0000
39.8701	1879.0000
39.8906	1947.0000
39.9111	1969.0000
39.9316	1969.0000
39.9520	2004.0000
39.9725	1973.0000
39.9930	1964.0000
40.0135	2007.0000
40.0339	2049.0000
40.0544	2048.0000
40.0749	2062.0000
40.0954	2087.0000
40.1158	2143.0000
40.1363	2095.0000
40.1568	2084.0000
40.1773	2204.0000
40.1977	2188.0000
40.2182	2153.0000
40.2387	2073.0000
40.2592	2194.0000
40.2796	2117.0000
40.3001	2226.0000
40.3206	2245.0000
40.3411	2233.0000
40.3615	2138.0000
40.3820	2181.0000
40.4025	2165.0000
40.4230	2170.0000
40.4434	2214.0000
40.4639	2089.0000
40.4844	2062.0000
40.5049	2112.0000
40.5253	2159.0000
40.5458	2100.0000
40.5663	2133.0000
40.5868	2109.0000
40.6073	2112.0000
40.6277	2205.0000
40.6482	2101.0000
40.6687	2133.0000
40.6892	2073.0000
40.7096	2040.0000
40.7301	2113.0000
40.7506	2100.0000
40.7711	1969.0000
40.7915	2056.0000
40.8120	1987.0000
40.8325	1984.0000
40.8530	2057.0000
40.8734	1955.0000
40.8939	1953.0000
40.9144	2029.0000
40.9349	1918.0000
40.9553	1888.0000
40.9758	1906.0000
40.9963	1896.0000
41.0168	1910.0000
41.0372	1876.0000
41.0577	1891.0000
41.0782	1802.0000
41.0987	1784.0000
41.1191	1715.0000
41.1396	1835.0000
41.1601	1768.0000
41.1806	1728.0000
41.2010	1676.0000
41.2215	1785.0000
41.2420	1661.0000
41.2625	1590.0000
41.2829	1688.0000
41.3034	1564.0000
41.3239	1645.0000
41.3444	1613.0000
41.3648	1570.0000
41.3853	1543.0000
41.4058	1533.0000
41.4263	1549.0000
41.4468	1541.0000
41.4672	1478.0000
41.4877	1523.0000
41.5082	1445.0000
41.5287	1521.0000
41.5491	1438.0000
41.5696	1471.0000
41.5901	1426.0000
41.6106	1401.0000
41.6310	1346.0000
41.6515	1331.0000
41.6720	1299.0000
41.6925	1309.0000
41.7129	1425.0000
41.7334	1291.0000
41.7539	1283.0000
41.7744	1284.0000
41.7948	1264.0000
41.8153	1263.0000
41.8358	1270.0000
41.8563	1237.0000
41.8767	1197.0000
41.8972	1243.0000
41.9177	1175.0000
41.9382	1268.0000
41.9586	1220.0000
41.9791	1141.0000
41.9996	1144.0000
42.0201	1077.0000
42.0405	1131.0000
42.0610	1114.0000
42.0815	1090.0000
42.1020	1086.0000
42.1224	1078.0000
42.1429	1083.0000
42.1634	1062.0000
42.1839	1044.0000
42.2044	1061.0000
42.2248	1076.0000
42.2453	1016.0000
42.2658	921.0000
42.2863	977.0000
42.3067	1036.0000
42.3272	1002.0000
42.3477	966.0000
42.3682	989.0000
42.3886	937.0000
42.4091	946.0000
42.4296	941.0000
42.4501	895.0000
42.4705	943.0000
42.4910	948.0000
42.5115	971.0000
42.5320	947.0000
42.5524	917.0000
42.5729	854.0000
42.5934	872.0000
42.6139	881.0000
42.6343	870.0000
42.6548	880.0000
42.6753	883.0000
42.6958	826.0000
42.7162	845.0000
42.7367	889.0000
42.7572	830.0000
42.7777	809.0000
42.7981	852.0000
42.8186	923.0000
42.8391	849.0000
42.8596	845.0000
42.8800	831.0000
42.9005	899.0000
42.9210	862.0000
42.9415	838.0000
42.9619	842.0000
42.9824	799.0000
43.0029	806.0000
43.0234	829.0000
43.0439	859.0000
43.0643	853.0000
43.0848	807.0000
43.1053	765.0000
43.1258	798.0000
43.1462	763.0000
43.1667	792.0000
43.1872	776.0000
43.2077	784.0000
43.2281	844.0000
43.2486	840.0000
43.2691	780.0000
43.2896	769.0000
43.3100	804.0000
43.3305	856.0000
43.3510	793.0000
43.3715	784.0000
43.3919	804.0000
43.4124	788.0000
43.4329	773.0000
43.4534	837.0000
43.4738	824.0000
43.4943	776.0000
43.5148	849.0000
43.5353	769.0000
43.5557	739.0000
43.5762	725.0000
43.5967	745.0000
43.6172	794.0000
43.6376	787.0000
43.6581	787.0000
43.6786	763.0000
43.6991	808.0000
43.7195	781.0000
43.7400	774.0000
43.7605	758.0000
43.7810	730.0000
43.8015	800.0000
43.8219	815.0000
43.8424	758.0000
43.8629	756.0000
43.8834	758.0000
43.9038	748.0000
43.9243	726.0000
43.9448	775.0000
43.9653	790.0000
43.9857	765.0000
44.0062	763.0000
44.0267	706.0000
44.0472	781.0000
44.0676	722.0000
44.0881	786.0000
44.1086	763.0000
44.1291	839.0000
44.1495	760.0000
44.1700	819.0000
44.1905	797.0000
44.2110	798.0000
44.2314	756.0000
44.2519	764.0000
44.2724	857.0000
44.2929	786.0000
44.3133	732.0000
44.3338	733.0000
44.3543	743.0000
44.3748	809.0000
44.3952	754.0000
44.4157	743.0000
44.4362	778.0000
44.4567	791.0000
44.4771	774.0000
44.4976	819.0000
44.5181	747.0000
44.5386	750.0000
44.5591	801.0000
44.5795	732.0000
44.6000	777.0000
44.6205	742.0000
44.6410	721.0000
44.6614	765.0000
44.6819	814.0000
44.7024	796.0000
44.7229	801.0000
44.7433	778.0000
44.7638	740.0000
44.7843	801.0000
44.8048	839.0000
44.8252	760.0000
44.8457	805.0000
44.8662	715.0000
44.8867	802.0000
44.9071	845.0000
44.9276	809.0000
44.9481	821.0000
44.9686	798.0000
44.9890	787.0000
45.0095	831.0000
45.0300	794.0000
45.0505	812.0000
45.0709	831.0000
45.0914	820.0000
45.1119	830.0000
45.1324	793.0000
45.1528	850.0000
45.1733	769.0000
45.1938	807.0000
45.2143	788.0000
45.2347	849.0000
45.2552	794.0000
45.2757	829.0000
45.2962	866.0000
45.3166	863.0000
45.3371	882.0000
45.3576	888.0000
45.3781	868.0000
45.3986	845.0000
45.4190	819.0000
45.4395	788.0000
45.4600	884.0000
45.4805	907.0000
45.5009	914.0000
45.5214	837.0000
45.5419	918.0000
45.5624	891.0000
45.5828	823.0000
45.6033	895.0000
45.6238	882.0000
45.6443	902.0000
45.6647	898.0000
45.6852	955.0000
45.7057	939.0000
45.7262	935.0000
45.7466	904.0000
45.7671	974.0000
45.7876	887.0000
45.8081	919.0000
45.8285	954.0000
45.8490	979.0000
45.8695	923.0000
45.8900	972.0000
45.9104	999.0000
45.9309	954.0000
45.9514	1008.0000
45.9719	953.0000
45.9923	937.0000
46.0128	996.0000
46.0333	962.0000
46.0538	1004.0000
46.0742	970.0000
46.0947	1028.0000
46.1152	932.0000
46.1357	1034.0000
46.1562	1054.0000
46.1766	1025.0000
46.1971	1009.0000
46.2176	1034.0000
46.2381	1085.0000
46.2585	1079.0000
46.2790	1030.0000
46.2995	1079.0000
46.3200	1069.0000
46.3404	1070.0000
46.3609	1083.0000
46.3814	1080.0000
46.4019	1087.0000
46.4223	1096.0000
46.4428	1083.0000
46.4633	1120.0000
46.4838	1072.0000
46.5042	1076.0000
46.5247	1054.0000
46.5452	1142.0000
46.5657	1137.0000
46.5861	1075.0000
46.6066	1072.0000
46.6271	1154.0000
46.6476	1101.0000
46.6680	1162.0000
46.6885	1158.0000
46.7090	1083.0000
46.7295	1200.0000
46.7499	1071.0000
46.7704	1143.0000
46.7909	1139.0000
46.8114	1185.0000
46.8318	1124.0000
46.8523	1118.0000
46.8728	1189.0000
46.8933	1125.0000
46.9137	1153.0000
46.9342	1093.0000
46.9547	1127.0000
46.9752	1142.0000
46.9957	1177.0000
47.0161	1111.0000
47.0366	1063.0000
47.0571	1140.0000
47.0776	1152.0000
47.0980	1137.0000
47.1185	1161.0000
47.1390	1047.0000
47.1595	1118.0000
47.1799	1118.0000
47.2004	1095.0000
47.2209	1078.0000
47.2414	1040.0000
47.2618	1111.0000
47.2823	1139.0000
47.3028	1060.0000
47.3233	1101.0000
47.3437	1093.0000
47.3642	1052.0000
47.3847	1109.0000
47.4052	1057.0000
47.4256	1140.0000
47.4461	1040.0000
47.4666	1072.0000
47.4871	1049.0000
47.5075	1023.0000
47.5280	1014.0000
47.5485	1064.0000
47.5690	1003.0000
47.5894	1056.0000
47.6099	976.0000
47.6304	1018.0000
47.6509	935.0000
47.6713	1060.0000
47.6918	1051.0000
47.7123	1013.0000
47.7328	979.0000
47.7533	1021.0000
47.7737	997.0000
47.7942	1017.0000
47.8147	954.0000
47.8352	969.0000
47.8556	929.0000
47.8761	974.0000
47.8966	905.0000
47.9171	966.0000
47.9375	910.0000
47.9580	941.0000
47.9785	889.0000
47.9990	893.0000
48.0194	833.0000
48.0399	913.0000
48.0604	905.0000
48.0809	823.0000
48.1013	848.0000
48.1218	829.0000
48.1423	872.0000
48.1628	876.0000
48.1832	813.0000
48.2037	829.0000
48.2242	864.0000
48.2447	847.0000
48.2651	838.0000
48.2856	776.0000
48.3061	850.0000
48.3266	823.0000
48.3470	778.0000
48.3675	774.0000
48.3880	818.0000
48.4085	769.0000
48.4289	806.0000
48.4494	806.0000
48.4699	757.0000
48.4904	678.0000
48.5109	750.0000
48.5313	776.0000
48.5518	761.0000
48.5723	729.0000
48.5928	745.0000
48.6132	798.0000
48.6337	777.0000
48.6542	760.0000
48.6747	731.0000
48.6951	697.0000
48.7156	722.0000
48.7361	703.0000
48.7566	742.0000
48.7770	653.0000
48.7975	712.0000
48.8180	678.0000
48.8385	716.0000
48.8589	680.0000
48.8794	721.0000
48.8999	659.0000
48.9204	692.0000
48.9408	644.0000
48.9613	683.0000
48.9818	689.0000
49.0023	673.0000
49.0227	646.0000
49.0432	676.0000
49.0637	644.0000
49.0842	639.0000
49.1046	668.0000
49.1251	689.0000
49.1456	638.0000
49.1661	652.0000
49.1865	671.0000
49.2070	626.0000
49.2275	638.0000
49.2480	643.0000
49.2684	609.0000
49.2889	615.0000
49.3094	638.0000
49.3299	622.0000
49.3504	612.0000
49.3708	622.0000
49.3913	590.0000
49.4118	570.0000
49.4323	615.0000
49.4527	605.0000
49.4732	581.0000
49.4937	560.0000
49.5142	659.0000
49.5346	556.0000
49.5551	602.0000
49.5756	656.0000
49.5961	591.0000
49.6165	606.0000
49.6370	564.0000
49.6575	586.0000
49.6780	564.0000
49.6984	611.0000
49.7189	666.0000
49.7394	582.0000
49.7599	593.0000
49.7803	581.0000
49.8008	586.0000
49.8213	584.0000
49.8418	619.0000
49.8622	571.0000
49.8827	583.0000
49.9032	526.0000
49.9237	569.0000
49.9441	584.0000
49.9646	573.0000
49.9851	573.0000
50.0056	598.0000
50.0260	574.0000
50.0465	480.0000
50.0670	568.0000
50.0875	600.0000
50.1080	555.0000
50.1284	563.0000
50.1489	623.0000
50.1694	551.0000
50.1899	557.0000
50.2103	569.0000
50.2308	592.0000
50.2513	530.0000
50.2718	572.0000
50.2922	583.0000
50.3127	567.0000
50.3332	543.0000
50.3537	561.0000
50.3741	566.0000
50.3946	574.0000
50.4151	524.0000
50.4356	533.0000
50.4560	563.0000
50.4765	510.0000
50.4970	522.0000
50.5175	526.0000
50.5379	557.0000
50.5584	522.0000
50.5789	505.0000
50.5994	555.0000
50.6198	521.0000
50.6403	531.0000
50.6608	545.0000
50.6813	545.0000
50.7017	522.0000
50.7222	508.0000
50.7427	535.0000
50.7632	569.0000
50.7836	502.0000
50.8041	551.0000
50.8246	515.0000
50.8451	520.0000
50.8655	540.0000
50.8860	513.0000
50.9065	545.0000
50.9270	487.0000
50.9475	535.0000
50.9679	526.0000
50.9884	512.0000
51.0089	507.0000
51.0294	475.0000
51.0498	527.0000
51.0703	544.0000
51.0908	498.0000
51.1113	537.0000
51.1317	532.0000
51.1522	518.0000
51.1727	497.0000
51.1932	487.0000
51.2136	534.0000
51.2341	496.0000
51.2546	474.0000
51.2751	513.0000
51.2955	513.0000
51.3160	563.0000
51.3365	518.0000
51.3570	490.0000
51.3774	519.0000
51.3979	497.0000
51.4184	509.0000
51.4389	512.0000
51.4593	499.0000
51.4798	558.0000
51.5003	528.0000
51.5208	537.0000
51.5412	531.0000
51.5617	514.0000
51.5822	506.0000
51.6027	498.0000
51.6231	523.0000
51.6436	544.0000
51.6641	506.0000
51.6846	543.0000
51.7051	487.0000
51.7255	532.0000
51.7460	536.0000
51.7665	471.0000
51.7870	539.0000
51.8074	507.0000
51.8279	483.0000
51.8484	535.0000
51.8689	525.0000
51.8893	503.0000
51.9098	504.0000
51.9303	494.0000
51.9508	490.0000
51.9712	518.0000
51.9917	515.0000
52.0122	541.0000
52.0327	524.0000
52.0531	499.0000
52.0736	516.0000
52.0941	537.0000
52.1146	540.0000
52.1350	500.0000
52.1555	487.0000
52.1760	483.0000
52.1965	491.0000
52.2169	505.0000
52.2374	508.0000
52.2579	523.0000
52.2784	525.0000
52.2988	519.0000
52.3193	462.0000
52.3398	530.0000
52.3603	517.0000
52.3807	484.0000
52.4012	511.0000
52.4217	482.0000
52.4422	496.0000
52.4626	538.0000
52.4831	518.0000
52.5036	507.0000
52.5241	472.0000
52.5446	476.0000
52.5650	493.0000
52.5855	515.0000
52.6060	461.0000
52.6265	516.0000
52.6469	474.0000
52.6674	513.0000
52.6879	534.0000
52.7084	494.0000
52.7288	489.0000
52.7493	510.0000
52.7698	450.0000
52.7903	497.0000
52.8107	524.0000
52.8312	513.0000
52.8517	505.0000
52.8722	454.0000
52.8926	507.0000
52.9131	470.0000
52.9336	530.0000
52.9541	498.0000
52.9745	500.0000
52.9950	476.0000
53.0155	497.0000
53.0360	486.0000
53.0564	489.0000
53.0769	491.0000
53.0974	484.0000
53.1179	492.0000
53.1383	494.0000
53.1588	501.0000
53.1793	464.0000
53.1998	516.0000
53.2202	470.0000
53.2407	467.0000
53.2612	496.0000
53.2817	477.0000
53.3022	490.0000
53.3226	456.0000
53.3431	494.0000
53.3636	470.0000
53.3841	528.0000
53.4045	477.0000
53.4250	496.0000
53.4455	531.0000
53.4660	505.0000
53.4864	479.0000
53.5069	492.0000
53.5274	493.0000
53.5479	471.0000
53.5683	458.0000
53.5888	459.0000
53.6093	470.0000
53.6298	463.0000
53.6502	490.0000
53.6707	466.0000
53.6912	483.0000
53.7117	461.0000
53.7321	484.0000
53.7526	451.0000
53.7731	456.0000
53.7936	463.0000
53.8140	506.0000
53.8345	454.0000
53.8550	474.0000
53.8755	456.0000
53.8959	457.0000
53.9164	458.0000
53.9369	523.0000
53.9574	505.0000
53.9778	481.0000
53.9983	470.0000
54.0188	450.0000
54.0393	467.0000
54.0598	481.0000
54.0802	493.0000
54.1007	447.0000
54.1212	464.0000
54.1417	482.0000
54.1621	479.0000
54.1826	512.0000
54.2031	475.0000
54.2236	526.0000
54.2440	476.0000
54.2645	435.0000
54.2850	469.0000
54.3055	469.0000
54.3259	463.0000
54.3464	482.0000
54.3669	489.0000
54.3874	414.0000
54.4078	484.0000
54.4283	474.0000
54.4488	468.0000
54.4693	480.0000
54.4897	496.0000
54.5102	540.0000
54.5307	456.0000
54.5512	461.0000
54.5716	461.0000
54.5921	496.0000
54.6126	439.0000
54.6331	485.0000
54.6535	528.0000
54.6740	458.0000
54.6945	480.0000
54.7150	446.0000
54.7354	453.0000
54.7559	493.0000
54.7764	517.0000
54.7969	448.0000
54.8173	457.0000
54.8378	457.0000
54.8583	470.0000
54.8788	468.0000
54.8993	455.0000
54.9197	477.0000
54.9402	473.0000
54.9607	453.0000
54.9812	476.0000
55.0016	490.0000
55.0221	455.0000
55.0426	457.0000
55.0631	456.0000
55.0835	504.0000
55.1040	492.0000
55.1245	450.0000
55.1450	440.0000
55.1654	451.0000
55.1859	476.0000
55.2064	455.0000
55.2269	459.0000
55.2473	459.0000
55.2678	493.0000
55.2883	457.0000
55.3088	482.0000
55.3292	493.0000
55.3497	481.0000
55.3702	466.0000
55.3907	446.0000
55.4111	454.0000
55.4316	423.0000
55.4521	458.0000
55.4726	451.0000
55.4930	434.0000
55.5135	435.0000
55.5340	442.0000
55.5545	460.0000
55.5749	483.0000
55.5954	468.0000
55.6159	448.0000
55.6364	471.0000
55.6569	511.0000
55.6773	463.0000
55.6978	461.0000
55.7183	465.0000
55.7388	427.0000
55.7592	494.0000
55.7797	460.0000
55.8002	448.0000
55.8207	485.0000
55.8411	438.0000
55.8616	471.0000
55.8821	464.0000
55.9026	467.0000
55.9230	474.0000
55.9435	475.0000
55.9640	489.0000
55.9845	459.0000
56.0049	478.0000
56.0254	481.0000
56.0459	468.0000
56.0664	492.0000
56.0868	467.0000
56.1073	432.0000
56.1278	438.0000
56.1483	443.0000
56.1687	468.0000
56.1892	424.0000
56.2097	444.0000
56.2302	480.0000
56.2506	483.0000
56.2711	433.0000
56.2916	455.0000
56.3121	440.0000
56.3325	463.0000
56.3530	454.0000
56.3735	450.0000
56.3940	482.0000
56.4144	423.0000
56.4349	440.0000
56.4554	441.0000
56.4759	452.0000
56.4964	448.0000
56.5168	461.0000
56.5373	475.0000
56.5578	470.0000
56.5783	486.0000
56.5987	463.0000
56.6192	448.0000
56.6397	475.0000
56.6602	460.0000
56.6806	454.0000
56.7011	468.0000
56.7216	465.0000
56.7421	452.0000
56.7625	435.0000
56.7830	429.0000
56.8035	457.0000
56.8240	437.0000
56.8444	461.0000
56.8649	494.0000
56.8854	450.0000
56.9059	490.0000
56.9263	490.0000
56.9468	472.0000
56.9673	454.0000
56.9878	489.0000
57.0082	455.0000
57.0287	441.0000
57.0492	464.0000
57.0697	456.0000
57.0901	452.0000
57.1106	494.0000
57.1311	475.0000
57.1516	466.0000
57.1720	432.0000
57.1925	407.0000
57.2130	460.0000
57.2335	462.0000
57.2540	443.0000
57.2744	452.0000
57.2949	450.0000
57.3154	439.0000
57.3359	445.0000
57.3563	463.0000
57.3768	434.0000
57.3973	421.0000
57.4178	466.0000
57.4382	495.0000
57.4587	433.0000
57.4792	423.0000
57.4997	430.0000
57.5201	468.0000
57.5406	425.0000
57.5611	398.0000
57.5816	428.0000
57.6020	456.0000
57.6225	476.0000
57.6430	490.0000
57.6635	445.0000
57.6839	428.0000
57.7044	462.0000
57.7249	479.0000
57.7454	462.0000
57.7658	473.0000
57.7863	438.0000
57.8068	444.0000
57.8273	430.0000
57.8477	428.0000
57.8682	489.0000
57.8887	435.0000
57.9092	439.0000
57.9296	460.0000
57.9501	465.0000
57.9706	472.0000
57.9911	437.0000
58.0116	447.0000
58.0320	474.0000
58.0525	479.0000
58.0730	445.0000
58.0935	462.0000
58.1139	459.0000
58.1344	472.0000
58.1549	460.0000
58.1754	424.0000
58.1958	441.0000
58.2163	438.0000
58.2368	469.0000
58.2573	436.0000
58.2777	434.0000
58.2982	448.0000
58.3187	445.0000
58.3392	464.0000
58.3596	467.0000
58.3801	465.0000
58.4006	466.0000
58.4211	429.0000
58.4415	426.0000
58.4620	448.0000
58.4825	463.0000
58.5030	425.0000
58.5234	444.0000
58.5439	450.0000
58.5644	429.0000
58.5849	448.0000
58.6053	417.0000
58.6258	436.0000
58.6463	453.0000
58.6668	446.0000
58.6872	455.0000
58.7077	441.0000
58.7282	429.0000
58.7487	413.0000
58.7691	465.0000
58.7896	450.0000
58.8101	440.0000
58.8306	490.0000
58.8511	451.0000
58.8715	427.0000
58.8920	388.0000
58.9125	425.0000
58.9330	468.0000
58.9534	420.0000
58.9739	490.0000
58.9944	460.0000
59.0149	417.0000
59.0353	443.0000
59.0558	458.0000
59.0763	451.0000
59.0968	456.0000
59.1172	458.0000
59.1377	452.0000
59.1582	469.0000
59.1787	450.0000
59.1991	379.0000
59.2196	437.0000
59.2401	443.0000
59.2606	447.0000
59.2810	445.0000
59.3015	420.0000
59.3220	455.0000
59.3425	437.0000
59.3629	453.0000
59.3834	483.0000
59.4039	404.0000
59.4244	490.0000
59.4448	430.0000
59.4653	478.0000
59.4858	436.0000
59.5063	456.0000
59.5267	467.0000
59.5472	455.0000
59.5677	497.0000
59.5882	439.0000
59.6087	435.0000
59.6291	422.0000
59.6496	441.0000
59.6701	450.0000
59.6906	453.0000
59.7110	404.0000
59.7315	420.0000
59.7520	403.0000
59.7725	433.0000
59.7929	456.0000
59.8134	454.0000
59.8339	421.0000
59.8544	447.0000
59.8748	460.0000
59.8953	430.0000
59.9158	451.0000
59.9363	451.0000
59.9567	447.0000
59.9772	457.0000
59.9977	439.0000
60.0182	472.0000
60.0386	428.0000
60.0591	442.0000
60.0796	448.0000
60.1001	475.0000
60.1205	476.0000
60.1410	453.0000
60.1615	407.0000
60.1820	431.0000
60.2024	427.0000
60.2229	440.0000
60.2434	423.0000
60.2639	409.0000
60.2843	449.0000
60.3048	422.0000
60.3253	445.0000
60.3458	436.0000
60.3662	458.0000
60.3867	471.0000
60.4072	457.0000
60.4277	472.0000
60.4482	434.0000
60.4686	425.0000
60.4891	424.0000
60.5096	438.0000
60.5301	400.0000
60.5505	469.0000
60.5710	438.0000
60.5915	451.0000
60.6120	419.0000
60.6324	433.0000
60.6529	424.0000
60.6734	413.0000
60.6939	446.0000
60.7143	429.0000
60.7348	425.0000
60.7553	435.0000
60.7758	473.0000
60.7962	475.0000
60.8167	418.0000
60.8372	486.0000
60.8577	447.0000
60.8781	458.0000
60.8986	448.0000
60.9191	458.0000
60.9396	437.0000
60.9600	445.0000
60.9805	427.0000
61.0010	426.0000
61.0215	431.0000
61.0419	419.0000
61.0624	428.0000
61.0829	453.0000
61.1034	466.0000
61.1238	458.0000
61.1443	455.0000
61.1648	437.0000
61.1853	463.0000
61.2058	429.0000
61.2262	509.0000
61.2467	416.0000
61.2672	411.0000
61.2877	452.0000
61.3081	433.0000
61.3286	449.0000
61.3491	442.0000
61.3696	499.0000
61.3900	448.0000
61.4105	438.0000
61.4310	450.0000
61.4515	440.0000
61.4719	412.0000
61.4924	444.0000
61.5129	441.0000
61.5334	396.0000
61.5538	421.0000
61.5743	407.0000
61.5948	406.0000
61.6153	434.0000
61.6357	432.0000
61.6562	397.0000
61.6767	461.0000
61.6972	431.0000
61.7176	414.0000
61.7381	450.0000
61.7586	439.0000
61.7791	429.0000
61.7995	427.0000
61.8200	436.0000
61.8405	406.0000
61.8610	465.0000
61.8814	433.0000
61.9019	460.0000
61.9224	450.0000
61.9429	457.0000
61.9634	457.0000
61.9838	475.0000
62.0043	421.0000
62.0248	445.0000
62.0453	423.0000
62.0657	450.0000
62.0862	488.0000
62.1067	471.0000
62.1272	404.0000
62.1476	451.0000
62.1681	459.0000
62.1886	410.0000
62.2091	450.0000
62.2295	441.0000
62.2500	444.0000
62.2705	467.0000
62.2910	446.0000
62.3114	445.0000
62.3319	451.0000
62.3524	433.0000
62.3729	435.0000
62.3933	413.0000
62.4138	463.0000
62.4343	433.0000
62.4548	456.0000
62.4752	435.0000
62.4957	439.0000
62.5162	412.0000
62.5367	442.0000
62.5571	441.0000
62.5776	477.0000
62.5981	421.0000
62.6186	420.0000
62.6390	456.0000
62.6595	440.0000
62.6800	428.0000
62.7005	387.0000
62.7209	473.0000
62.7414	417.0000
62.7619	444.0000
62.7824	451.0000
62.8029	420.0000
62.8233	427.0000
62.8438	463.0000
62.8643	463.0000
62.8848	432.0000
62.9052	454.0000
62.9257	448.0000
62.9462	456.0000
62.9667	435.0000
62.9871	431.0000
63.0076	459.0000
63.0281	446.0000
63.0486	442.0000
63.0690	410.0000
63.0895	443.0000
63.1100	457.0000
63.1305	406.0000
63.1509	432.0000
63.1714	450.0000
63.1919	492.0000
63.2124	455.0000
63.2328	465.0000
63.2533	448.0000
63.2738	484.0000
63.2943	449.0000
63.3147	433.0000
63.3352	423.0000
63.3557	452.0000
63.3762	441.0000
63.3966	449.0000
63.4171	454.0000
63.4376	423.0000
63.4581	430.0000
63.4785	434.0000
63.4990	475.0000
63.5195	460.0000
63.5400	397.0000
63.5605	428.0000
63.5809	459.0000
63.6014	406.0000
63.6219	462.0000
63.6424	461.0000
63.6628	451.0000
63.6833	444.0000
63.7038	471.0000
63.7243	461.0000
63.7447	451.0000
63.7652	435.0000
63.7857	457.0000
63.8062	442.0000
63.8266	449.0000
63.8471	427.0000
63.8676	466.0000
63.8881	427.0000
63.9085	421.0000
63.9290	443.0000
63.9495	457.0000
63.9700	466.0000
63.9904	477.0000
64.0109	448.0000
64.0314	416.0000
64.0519	459.0000
64.0723	460.0000
64.0928	451.0000
64.1133	428.0000
64.1338	475.0000
64.1542	437.0000
64.1747	456.0000
64.1952	418.0000
64.2157	451.0000
64.2361	441.0000
64.2566	431.0000
64.2771	465.0000
64.2976	450.0000
64.3180	427.0000
64.3385	433.0000
64.3590	434.0000
64.3795	486.0000
64.4000	453.0000
64.4204	434.0000
64.4409	438.0000
64.4614	471.0000
64.4819	446.0000
64.5023	431.0000
64.5228	458.0000
64.5433	458.0000
64.5638	467.0000
64.5842	470.0000
64.6047	462.0000
64.6252	443.0000
64.6457	439.0000
64.6661	439.0000
64.6866	470.0000
64.7071	465.0000
64.7276	444.0000
64.7480	410.0000
64.7685	447.0000
64.7890	434.0000
64.8095	485.0000
64.8299	459.0000
64.8504	435.0000
64.8709	469.0000
64.8914	438.0000
64.9118	468.0000
64.9323	504.0000
64.9528	414.0000
64.9733	467.0000
64.9937	471.0000
65.0142	431.0000
65.0347	458.0000
65.0552	455.0000
65.0756	441.0000
65.0961	496.0000
65.1166	430.0000
65.1371	468.0000
65.1576	455.0000
65.1780	482.0000
65.1985	457.0000
65.2190	455.0000
65.2395	458.0000
65.2599	467.0000
65.2804	450.0000
65.3009	463.0000
65.3214	462.0000
65.3418	463.0000
65.3623	466.0000
65.3828	499.0000
65.4033	499.0000
65.4237	478.0000
65.4442	485.0000
65.4647	480.0000
65.4852	485.0000
65.5056	505.0000
65.5261	460.0000
65.5466	463.0000
65.5671	464.0000
65.5875	476.0000
65.6080	472.0000
65.6285	469.0000
65.6490	472.0000
65.6694	445.0000
65.6899	454.0000
65.7104	466.0000
65.7309	486.0000
65.7513	526.0000
65.7718	476.0000
65.7923	489.0000
65.8128	456.0000
65.8332	483.0000
65.8537	532.0000
65.8742	482.0000
65.8947	500.0000
65.9152	479.0000
65.9356	469.0000
65.9561	489.0000
65.9766	490.0000
65.9971	531.0000
66.0175	526.0000
66.0380	491.0000
66.0585	516.0000
66.0790	507.0000
66.0994	530.0000
66.1199	477.0000
66.1404	522.0000
66.1609	542.0000
66.1813	516.0000
66.2018	517.0000
66.2223	520.0000
66.2428	500.0000
66.2632	545.0000
66.2837	519.0000
66.3042	504.0000
66.3247	551.0000
66.3451	523.0000
66.3656	509.0000
66.3861	510.0000
66.4066	568.0000
66.4270	521.0000
66.4475	515.0000
66.4680	547.0000
66.4885	509.0000
66.5089	571.0000
66.5294	495.0000
66.5499	552.0000
66.5704	499.0000
66.5908	489.0000
66.6113	523.0000
66.6318	533.0000
66.6523	545.0000
66.6727	546.0000
66.6932	500.0000
66.7137	509.0000
66.7342	545.0000
66.7547	560.0000
66.7751	540.0000
66.7956	538.0000
66.8161	547.0000
66.8366	534.0000
66.8570	549.0000
66.8775	572.0000
66.8980	539.0000
66.9185	573.0000
66.9389	571.0000
66.9594	548.0000
66.9799	570.0000
67.0004	600.0000
67.0208	566.0000
67.0413	604.0000
67.0618	558.0000
67.0823	570.0000
67.1027	573.0000
67.1232	641.0000
67.1437	537.0000
67.1642	616.0000
67.1846	570.0000
67.2051	612.0000
67.2256	601.0000
67.2461	549.0000
67.2665	633.0000
67.2870	584.0000
67.3075	574.0000
67.3280	625.0000
67.3484	618.0000
67.3689	593.0000
67.3894	569.0000
67.4099	623.0000
67.4303	667.0000
67.4508	613.0000
67.4713	604.0000
67.4918	613.0000
67.5123	620.0000
67.5327	571.0000
67.5532	569.0000
67.5737	596.0000
67.5942	653.0000
67.6146	627.0000
67.6351	656.0000
67.6556	626.0000
67.6761	651.0000
67.6965	680.0000
67.7170	624.0000
67.7375	656.0000
67.7580	644.0000
67.7784	637.0000
67.7989	675.0000
67.8194	678.0000
67.8399	610.0000
67.8603	647.0000
67.8808	640.0000
67.9013	610.0000
67.9218	653.0000
67.9422	663.0000
67.9627	664.0000
67.9832	669.0000
68.0037	637.0000
68.0241	669.0000
68.0446	674.0000
68.0651	667.0000
68.0856	691.0000
68.1060	710.0000
68.1265	636.0000
68.1470	661.0000
68.1675	617.0000
68.1879	700.0000
68.2084	675.0000
68.2289	648.0000
68.2494	686.0000
68.2698	683.0000
68.2903	698.0000
68.3108	632.0000
68.3313	653.0000
68.3518	764.0000
68.3722	651.0000
68.3927	676.0000
68.4132	687.0000
68.4337	626.0000
68.4541	689.0000
68.4746	609.0000
68.4951	649.0000
68.5156	677.0000
68.5360	669.0000
68.5565	654.0000
68.5770	705.0000
68.5975	672.0000
68.6179	668.0000
68.6384	631.0000
68.6589	639.0000
68.6794	642.0000
68.6998	650.0000
68.7203	646.0000
68.7408	696.0000
68.7613	640.0000
68.7817	665.0000
68.8022	658.0000
68.8227	690.0000
68.8432	652.0000
68.8636	681.0000
68.8841	661.0000
68.9046	648.0000
68.9251	609.0000
68.9455	626.0000
68.9660	642.0000
68.9865	641.0000
69.0070	706.0000
69.0274	675.0000
69.0479	685.0000
69.0684	606.0000
69.0889	653.0000
69.1094	618.0000
69.1298	673.0000
69.1503	656.0000
69.1708	638.0000
69.1913	656.0000
69.2117	639.0000
69.2322	625.0000
69.2527	614.0000
69.2732	585.0000
69.2936	632.0000
69.3141	661.0000
69.3346	639.0000
69.3551	624.0000
69.3755	629.0000
69.3960	572.0000
69.4165	608.0000
69.4370	612.0000
69.4574	614.0000
69.4779	613.0000
69.4984	598.0000
69.5189	608.0000
69.5393	617.0000
69.5598	614.0000
69.5803	601.0000
69.6008	624.0000
69.6212	617.0000
69.6417	577.0000
69.6622	584.0000
69.6827	568.0000
69.7031	587.0000
69.7236	552.0000
69.7441	560.0000
69.7646	548.0000
69.7850	547.0000
69.8055	552.0000
69.8260	552.0000
69.8465	560.0000
69.8670	568.0000
69.8874	576.0000
69.9079	567.0000
69.9284	580.0000
69.9489	567.0000
69.9693	515.0000
69.9898	555.0000
70.0103	534.0000
70.0308	515.0000
70.0512	524.0000
70.0717	501.0000
70.0922	542.0000
70.1127	498.0000
70.1331	526.0000
70.1536	525.0000
70.1741	483.0000
70.1946	541.0000
70.2150	551.0000
70.2355	582.0000
70.2560	519.0000
70.2765	505.0000
70.2969	561.0000
70.3174	529.0000
70.3379	550.0000
70.3584	501.0000
70.3788	534.0000
70.3993	557.0000
70.4198	522.0000
70.4403	490.0000
70.4607	541.0000
70.4812	521.0000
70.5017	546.0000
70.5222	537.0000
70.5426	508.0000
70.5631	493.0000
70.5836	503.0000
70.6041	532.0000
70.6245	501.0000
70.6450	488.0000
70.6655	490.0000
70.6860	495.0000
70.7065	493.0000
70.7269	487.0000
70.7474	495.0000
70.7679	521.0000
70.7884	536.0000
70.8088	521.0000
70.8293	502.0000
70.8498	497.0000
70.8703	503.0000
70.8907	446.0000
70.9112	451.0000
70.9317	464.0000
70.9522	496.0000
70.9726	481.0000
70.9931	462.0000
71.0136	488.0000
71.0341	476.0000
71.0545	522.0000
71.0750	455.0000
71.0955	473.0000
71.1160	443.0000
71.1364	473.0000
71.1569	467.0000
71.1774	515.0000
71.1979	452.0000
71.2183	429.0000
71.2388	454.0000
71.2593	435.0000
71.2798	455.0000
71.3002	484.0000
71.3207	449.0000
71.3412	440.0000
71.3617	466.0000
71.3821	489.0000
71.4026	475.0000
71.4231	481.0000
71.4436	467.0000
71.4641	445.0000
71.4845	419.0000
71.5050	401.0000
71.5255	435.0000
71.5460	445.0000
71.5664	441.0000
71.5869	460.0000
71.6074	476.0000
71.6279	433.0000
71.6483	423.0000
71.6688	435.0000
71.6893	453.0000
71.7098	413.0000
71.7302	464.0000
71.7507	397.0000
71.7712	462.0000
71.7917	446.0000
71.8121	440.0000
71.8326	466.0000
71.8531	457.0000
71.8736	450.0000
71.8940	447.0000
71.9145	423.0000
71.9350	384.0000
71.9555	427.0000
71.9759	423.0000
71.9964	430.0000
72.0169	414.0000
72.0374	454.0000
72.0578	445.0000
72.0783	435.0000
72.0988	426.0000
72.1193	397.0000
72.1397	419.0000
72.1602	435.0000
72.1807	384.0000
72.2012	420.0000
72.2216	402.0000
72.2421	470.0000
72.2626	453.0000
72.2831	431.0000
72.3036	419.0000
72.3240	437.0000
72.3445	428.0000
72.3650	448.0000
72.3855	416.0000
72.4059	425.0000
72.4264	445.0000
72.4469	433.0000
72.4674	441.0000
72.4878	418.0000
72.5083	380.0000
72.5288	422.0000
72.5493	427.0000
72.5697	415.0000
72.5902	422.0000
72.6107	421.0000
72.6312	384.0000
72.6516	392.0000
72.6721	403.0000
72.6926	447.0000
72.7131	433.0000
72.7335	411.0000
72.7540	401.0000
72.7745	418.0000
72.7950	428.0000
72.8154	389.0000
72.8359	413.0000
72.8564	440.0000
72.8769	416.0000
72.8973	386.0000
72.9178	394.0000
72.9383	393.0000
72.9588	379.0000
72.9792	399.0000
72.9997	419.0000
73.0202	414.0000
73.0407	426.0000
73.0612	432.0000
73.0816	393.0000
73.1021	408.0000
73.1226	415.0000
73.1431	414.0000
73.1635	399.0000
73.1840	372.0000
73.2045	411.0000
73.2250	392.0000
73.2454	398.0000
73.2659	390.0000
73.2864	376.0000
73.3069	394.0000
73.3273	421.0000
73.3478	415.0000
73.3683	392.0000
73.3888	374.0000
73.4092	431.0000
73.4297	400.0000
73.4502	433.0000
73.4707	396.0000
73.4911	350.0000
73.5116	428.0000
73.5321	401.0000
73.5526	375.0000
73.5730	406.0000
73.5935	408.0000
73.6140	402.0000
73.6345	413.0000
73.6549	360.0000
73.6754	370.0000
73.6959	384.0000
73.7164	387.0000
73.7368	411.0000
73.7573	403.0000
73.7778	389.0000
73.7983	378.0000
73.8187	439.0000
73.8392	398.0000
73.8597	401.0000
73.8802	390.0000
73.9007	399.0000
73.9211	387.0000
73.9416	368.0000
73.9621	394.0000
73.9826	398.0000
74.0030	388.0000
74.0235	389.0000
74.0440	393.0000
74.0645	379.0000
74.0849	424.0000
74.1054	410.0000
74.1259	409.0000
74.1464	365.0000
74.1668	377.0000
74.1873	412.0000
74.2078	378.0000
74.2283	411.0000
74.2487	415.0000
74.2692	387.0000
74.2897	397.0000
74.3102	414.0000
74.3306	398.0000
74.3511	396.0000
74.3716	386.0000
74.3921	420.0000
74.4125	407.0000
74.4330	385.0000
74.4535	374.0000
74.4740	392.0000
74.4944	402.0000
74.5149	380.0000
74.5354	397.0000
74.5559	383.0000
74.5763	352.0000
74.5968	390.0000
74.6173	372.0000
74.6378	416.0000
74.6583	398.0000
74.6787	390.0000
74.6992	379.0000
74.7197	363.0000
74.7402	376.0000
74.7606	390.0000
74.7811	413.0000
74.8016	390.0000
74.8221	381.0000
74.8425	375.0000
74.8630	379.0000
74.8835	392.0000
74.9040	344.0000
74.9244	376.0000
74.9449	398.0000
74.9654	387.0000
74.9859	364.0000
75.0063	399.0000
75.0268	350.0000
75.0473	404.0000
75.0678	413.0000
75.0882	393.0000
75.1087	391.0000
75.1292	372.0000
75.1497	392.0000
75.1701	375.0000
75.1906	398.0000
75.2111	387.0000
75.2316	427.0000
75.2520	384.0000
75.2725	433.0000
75.2930	386.0000
75.3135	392.0000
75.3339	390.0000
75.3544	405.0000
75.3749	381.0000
75.3954	370.0000
75.4159	357.0000
75.4363	392.0000
75.4568	381.0000
75.4773	407.0000
75.4978	405.0000
75.5182	400.0000
75.5387	395.0000
75.5592	389.0000
75.5797	394.0000
75.6001	385.0000
75.6206	395.0000
75.6411	385.0000
75.6616	385.0000
75.6820	385.0000
75.7025	439.0000
75.7230	420.0000
75.7435	375.0000
75.7639	384.0000
75.7844	384.0000
75.8049	388.0000
75.8254	398.0000
75.8458	424.0000
75.8663	397.0000
75.8868	412.0000
75.9073	359.0000
75.9277	376.0000
75.9482	380.0000
75.9687	378.0000
75.9892	372.0000
76.0096	385.0000
76.0301	378.0000
76.0506	400.0000
76.0711	401.0000
76.0915	383.0000
76.1120	389.0000
76.1325	345.0000
76.1530	417.0000
76.1734	389.0000
76.1939	393.0000
76.2144	383.0000
76.2349	434.0000
76.2554	387.0000
76.2758	378.0000
76.2963	423.0000
76.3168	412.0000
76.3373	418.0000
76.3577	389.0000
76.3782	382.0000
76.3987	403.0000
76.4192	361.0000
76.4396	360.0000
76.4601	355.0000
76.4806	385.0000
76.5011	391.0000
76.5215	339.0000
76.5420	354.0000
76.5625	372.0000
76.5830	379.0000
76.6034	386.0000
76.6239	438.0000
76.6444	378.0000
76.6649	357.0000
76.6853	393.0000
76.7058	418.0000
76.7263	435.0000
76.7468	407.0000
76.7672	376.0000
76.7877	382.0000
76.8082	381.0000
76.8287	396.0000
76.8491	430.0000
76.8696	395.0000
76.8901	427.0000
76.9106	369.0000
76.9310	392.0000
76.9515	390.0000
76.9720	382.0000
76.9925	371.0000
77.0130	383.0000
77.0334	370.0000
77.0539	406.0000
77.0744	387.0000
77.0949	380.0000
77.1153	419.0000
77.1358	398.0000
77.1563	412.0000
77.1768	328.0000
77.1972	388.0000
77.2177	378.0000
77.2382	371.0000
77.2587	397.0000
77.2791	373.0000
77.2996	388.0000
77.3201	423.0000
77.3406	392.0000
77.3610	404.0000
77.3815	386.0000
77.4020	418.0000
77.4225	385.0000
77.4429	424.0000
77.4634	400.0000
77.4839	397.0000
77.5044	402.0000
77.5248	411.0000
77.5453	392.0000
77.5658	415.0000
77.5863	371.0000
77.6067	371.0000
77.6272	370.0000
77.6477	412.0000
77.6682	369.0000
77.6886	414.0000
77.7091	408.0000
77.7296	421.0000
77.7501	373.0000
77.7705	396.0000
77.7910	423.0000
77.8115	398.0000
77.8320	412.0000
77.8525	398.0000
77.8729	387.0000
77.8934	380.0000
77.9139	413.0000
77.9344	390.0000
77.9548	386.0000
77.9753	402.0000
77.9958	365.0000
78.0163	412.0000
78.0367	420.0000
78.0572	414.0000
78.0777	390.0000
78.0982	443.0000
78.1186	412.0000
78.1391	408.0000
78.1596	405.0000
78.1801	421.0000
78.2005	459.0000
78.2210	433.0000
78.2415	416.0000
78.2620	411.0000
78.2824	428.0000
78.3029	385.0000
78.3234	376.0000
78.3439	425.0000
78.3643	458.0000
78.3848	398.0000
78.4053	428.0000
78.4258	418.0000
78.4462	393.0000
78.4667	419.0000
78.4872	417.0000
78.5077	412.0000
78.5281	387.0000
78.5486	369.0000
78.5691	377.0000
78.5896	363.0000
78.6101	432.0000
78.6305	429.0000
78.6510	418.0000
78.6715	424.0000
78.6920	392.0000
78.7124	427.0000
78.7329	438.0000
78.7534	416.0000
78.7739	393.0000
78.7943	366.0000
78.8148	405.0000
78.8353	408.0000
78.8558	392.0000
78.8762	423.0000
78.8967	422.0000
78.9172	438.0000
78.9377	422.0000
78.9581	423.0000
78.9786	381.0000
78.9991	404.0000
79.0196	430.0000
79.0400	426.0000
79.0605	405.0000
79.0810	451.0000
79.1015	433.0000
79.1219	431.0000
79.1424	431.0000
79.1629	417.0000
79.1834	405.0000
79.2038	478.0000
79.2243	421.0000
79.2448	445.0000
79.2653	452.0000
79.2857	406.0000
79.3062	440.0000
79.3267	462.0000
79.3472	434.0000
79.3677	458.0000
79.3881	445.0000
79.4086	435.0000
79.4291	451.0000
79.4496	417.0000
79.4700	413.0000
79.4905	434.0000
79.5110	442.0000
79.5315	441.0000
79.5519	442.0000
79.5724	442.0000
79.5929	423.0000
79.6134	427.0000
79.6338	424.0000
79.6543	445.0000
79.6748	436.0000
79.6953	442.0000
79.7157	447.0000
79.7362	429.0000
79.7567	401.0000
79.7772	486.0000
79.7976	438.0000
79.8181	463.0000
79.8386	444.0000
79.8591	458.0000
79.8795	431.0000
79.9000	460.0000
79.9205	426.0000
79.9410	434.0000
79.9614	479.0000
79.9819	467.0000
80.0024	476.0000
80.0229	449.0000
80.0433	421.0000
80.0638	462.0000
80.0843	471.0000
80.1048	458.0000
80.1252	481.0000
80.1457	456.0000
80.1662	467.0000
80.1867	467.0000
80.2072	524.0000
80.2276	456.0000
80.2481	433.0000
80.2686	458.0000
80.2891	484.0000
80.3095	485.0000
80.3300	492.0000
80.3505	498.0000
80.3710	494.0000
80.3914	473.0000
80.4119	448.0000
80.4324	504.0000
80.4529	503.0000
80.4733	479.0000
80.4938	468.0000
80.5143	425.0000
80.5348	469.0000
80.5552	489.0000
80.5757	476.0000
80.5962	528.0000
80.6167	453.0000
80.6371	521.0000
80.6576	503.0000
80.6781	509.0000
80.6986	523.0000
80.7190	477.0000
80.7395	496.0000
80.7600	493.0000
80.7805	466.0000
80.8009	554.0000
80.8214	478.0000
80.8419	511.0000
80.8624	495.0000
80.8828	522.0000
80.9033	514.0000
80.9238	516.0000
80.9443	527.0000
80.9648	483.0000
80.9852	520.0000
81.0057	500.0000
81.0262	525.0000
81.0467	529.0000
81.0671	511.0000
81.0876	535.0000
81.1081	512.0000
81.1286	501.0000
81.1490	548.0000
81.1695	552.0000
81.1900	523.0000
81.2105	527.0000
81.2309	547.0000
81.2514	545.0000
81.2719	484.0000
81.2924	521.0000
81.3128	549.0000
81.3333	562.0000
81.3538	550.0000
81.3743	548.0000
81.3947	566.0000
81.4152	575.0000
81.4357	544.0000
81.4562	546.0000
81.4766	533.0000
81.4971	536.0000
81.5176	551.0000
81.5381	537.0000
81.5585	541.0000
81.5790	572.0000
81.5995	585.0000
81.6200	576.0000
81.6404	548.0000
81.6609	563.0000
81.6814	614.0000
81.7019	581.0000
81.7223	543.0000
81.7428	565.0000
81.7633	539.0000
81.7838	562.0000
81.8043	571.0000
81.8247	591.0000
81.8452	562.0000
81.8657	592.0000
81.8862	587.0000
81.9066	606.0000
81.9271	549.0000
81.9476	567.0000
81.9681	588.0000
81.9885	581.0000
82.0090	580.0000
82.0295	542.0000
82.0500	599.0000
82.0704	585.0000
82.0909	618.0000
82.1114	550.0000
82.1319	606.0000
82.1523	602.0000
82.1728	597.0000
82.1933	621.0000
82.2138	559.0000
82.2342	597.0000
82.2547	607.0000
82.2752	594.0000
82.2957	599.0000
82.3161	599.0000
82.3366	604.0000
82.3571	545.0000
82.3776	585.0000
82.3980	606.0000
82.4185	630.0000
82.4390	596.0000
82.4595	594.0000
82.4799	551.0000
82.5004	618.0000
82.5209	579.0000
82.5414	595.0000
82.5619	605.0000
82.5823	577.0000
82.6028	595.0000
82.6233	574.0000
82.6438	598.0000
82.6642	578.0000
82.6847	608.0000
82.7052	604.0000
82.7257	636.0000
82.7461	548.0000
82.7666	577.0000
82.7871	616.0000
82.8076	586.0000
82.8280	574.0000
82.8485	567.0000
82.8690	559.0000
82.8895	605.0000
82.9099	609.0000
82.9304	552.0000
82.9509	590.0000
82.9714	564.0000
82.9918	600.0000
83.0123	545.0000
83.0328	593.0000
83.0533	584.0000
83.0737	588.0000
83.0942	550.0000
83.1147	591.0000
83.1352	569.0000
83.1556	581.0000
83.1761	579.0000
83.1966	575.0000
83.2171	597.0000
83.2375	538.0000
83.2580	571.0000
83.2785	623.0000
83.2990	543.0000
83.3195	532.0000
83.3399	547.0000
83.3604	553.0000
83.3809	575.0000
83.4014	553.0000
83.4218	578.0000
83.4423	554.0000
83.4628	580.0000
83.4833	565.0000
83.5037	548.0000
83.5242	510.0000
83.5447	509.0000
83.5652	500.0000
83.5856	558.0000
83.6061	559.0000
83.6266	550.0000
83.6471	496.0000
83.6675	525.0000
83.6880	563.0000
83.7085	559.0000
83.7290	504.0000
83.7494	523.0000
83.7699	537.0000
83.7904	565.0000
83.8109	537.0000
83.8313	526.0000
83.8518	533.0000
83.8723	489.0000
83.8928	520.0000
83.9132	525.0000
83.9337	502.0000
83.9542	497.0000
83.9747	537.0000
83.9951	489.0000
84.0156	505.0000
84.0361	481.0000
84.0566	520.0000
84.0770	504.0000
84.0975	509.0000
84.1180	500.0000
84.1385	554.0000
84.1590	526.0000
84.1794	506.0000
84.1999	479.0000
84.2204	490.0000
84.2409	478.0000
84.2613	525.0000
84.2818	512.0000
84.3023	502.0000
84.3228	495.0000
84.3432	502.0000
84.3637	492.0000
84.3842	476.0000
84.4047	533.0000
84.4251	520.0000
84.4456	474.0000
84.4661	506.0000
84.4866	438.0000
84.5070	470.0000
84.5275	488.0000
84.5480	487.0000
84.5685	478.0000
84.5889	525.0000
84.6094	473.0000
84.6299	471.0000
84.6504	527.0000
84.6708	483.0000
84.6913	532.0000
84.7118	468.0000
84.7323	440.0000
84.7527	457.0000
84.7732	466.0000
84.7937	481.0000
84.8142	491.0000
84.8346	459.0000
84.8551	493.0000
84.8756	446.0000
84.8961	473.0000
84.9166	467.0000
84.9370	447.0000
84.9575	484.0000
84.9780	502.0000
84.9985	436.0000
85.0189	438.0000
85.0394	481.0000
85.0599	461.0000
85.0804	454.0000
85.1008	455.0000
85.1213	513.0000
85.1418	420.0000
85.1623	430.0000
85.1827	456.0000
85.2032	453.0000
85.2237	448.0000
85.2442	463.0000
85.2646	440.0000
85.2851	464.0000
85.3056	458.0000
85.3261	498.0000
85.3465	451.0000
85.3670	458.0000
85.3875	469.0000
85.4080	481.0000
85.4284	459.0000
85.4489	462.0000
85.4694	448.0000
85.4899	430.0000
85.5103	455.0000
85.5308	433.0000
85.5513	443.0000
85.5718	424.0000
85.5922	436.0000
85.6127	450.0000
85.6332	455.0000
85.6537	441.0000
85.6741	426.0000
85.6946	414.0000
85.7151	463.0000
85.7356	436.0000
85.7561	447.0000
85.7765	448.0000
85.7970	443.0000
85.8175	440.0000
85.8380	412.0000
85.8584	435.0000
85.8789	391.0000
85.8994	406.0000
85.9199	441.0000
85.9403	445.0000
85.9608	465.0000
85.9813	422.0000
86.0018	461.0000
86.0222	409.0000
86.0427	440.0000
86.0632	401.0000
86.0837	444.0000
86.1041	428.0000
86.1246	430.0000
86.1451	422.0000
86.1656	444.0000
86.1860	396.0000
86.2065	410.0000
86.2270	448.0000
86.2475	458.0000
86.2679	419.0000
86.2884	405.0000
86.3089	436.0000
86.3294	376.0000
86.3498	445.0000
86.3703	454.0000
86.3908	414.0000
86.4113	388.0000
86.4317	424.0000
86.4522	387.0000
86.4727	435.0000
86.4932	424.0000
86.5137	411.0000
86.5341	434.0000
86.5546	438.0000
86.5751	434.0000
86.5956	395.0000
86.6160	424.0000
86.6365	415.0000
86.6570	434.0000
86.6775	421.0000
86.6979	387.0000
86.7184	433.0000
86.7389	393.0000
86.7594	410.0000
86.7798	424.0000
86.8003	395.0000
86.8208	447.0000
86.8413	396.0000
86.8617	411.0000
86.8822	422.0000
86.9027	399.0000
86.9232	425.0000
86.9436	439.0000
86.9641	445.0000
86.9846	399.0000
87.0051	436.0000
87.0255	399.0000
87.0460	412.0000
87.0665	427.0000
87.0870	385.0000
87.1074	413.0000
87.1279	408.0000
87.1484	434.0000
87.1689	395.0000
87.1893	415.0000
87.2098	426.0000
87.2303	419.0000
87.2508	423.0000
87.2713	423.0000
87.2917	417.0000
87.3122	428.0000
87.3327	416.0000
87.3532	400.0000
87.3736	396.0000
87.3941	401.0000
87.4146	408.0000
87.4351	429.0000
87.4555	365.0000
87.4760	419.0000
87.4965	412.0000
87.5170	411.0000
87.5374	426.0000
87.5579	415.0000
87.5784	416.0000
87.5989	402.0000
87.6193	421.0000
87.6398	442.0000
87.6603	377.0000
87.6808	405.0000
87.7012	415.0000
87.7217	360.0000
87.7422	391.0000
87.7627	375.0000
87.7831	398.0000
87.8036	389.0000
87.8241	408.0000
87.8446	432.0000
87.8650	380.0000
87.8855	409.0000
87.9060	364.0000
87.9265	376.0000
87.9469	398.0000
87.9674	343.0000
87.9879	372.0000
88.0084	375.0000
88.0288	346.0000
88.0493	374.0000
88.0698	360.0000
88.0903	416.0000
88.1108	389.0000
88.1312	392.0000
88.1517	366.0000
88.1722	406.0000
88.1927	374.0000
88.2131	369.0000
88.2336	406.0000
88.2541	367.0000
88.2746	357.0000
88.2950	421.0000
88.3155	432.0000
88.3360	349.0000
88.3565	357.0000
88.3769	365.0000
88.3974	370.0000
88.4179	394.0000
88.4384	395.0000
88.4588	373.0000
88.4793	382.0000
88.4998	348.0000
88.5203	384.0000
88.5407	384.0000
88.5612	365.0000
88.5817	378.0000
88.6022	383.0000
88.6226	362.0000
88.6431	377.0000
88.6636	372.0000
88.6841	366.0000
88.7045	362.0000
88.7250	383.0000
88.7455	369.0000
88.7660	359.0000
88.7864	340.0000
88.8069	357.0000
88.8274	358.0000
88.8479	374.0000
88.8684	371.0000
88.8888	382.0000
88.9093	362.0000
88.9298	348.0000
88.9503	372.0000
88.9707	380.0000
88.9912	356.0000
89.0117	386.0000
89.0322	358.0000
89.0526	342.0000
89.0731	324.0000
89.0936	332.0000
89.1141	347.0000
89.1345	363.0000
89.1550	374.0000
89.1755	382.0000
89.1960	328.0000
89.2164	383.0000
89.2369	376.0000
89.2574	355.0000
89.2779	363.0000
89.2983	344.0000
89.3188	305.0000
89.3393	352.0000
89.3598	383.0000
89.3802	373.0000
89.4007	356.0000
89.4212	369.0000
89.4417	366.0000
89.4621	354.0000
89.4826	352.0000
89.5031	364.0000
89.5236	320.0000
89.5440	321.0000
89.5645	355.0000
89.5850	318.0000
89.6055	363.0000
89.6259	318.0000
89.6464	340.0000
89.6669	363.0000
89.6874	329.0000
89.7079	347.0000
89.7283	379.0000
89.7488	357.0000
89.7693	323.0000
89.7898	353.0000
89.8102	325.0000
89.8307	358.0000
89.8512	331.0000
89.8717	314.0000
89.8921	347.0000
89.9126	319.0000
89.9331	334.0000
89.9536	293.0000
89.9740	317.0000
89.9945	348.0000
90.0150	344.0000
