5.0001	1910.0000
5.0206	1858.0000
5.0411	1923.0000
5.0615	1884.0000
5.0820	1847.0000
5.1025	1739.0000
5.1230	1824.0000
5.1434	1774.0000
5.1639	1805.0000
5.1844	1791.0000
5.2049	1764.0000
5.2253	1743.0000
5.2458	1742.0000
5.2663	1745.0000
5.2868	1752.0000
5.3072	1633.0000
5.3277	1715.0000
5.3482	1748.0000
5.3687	1716.0000
5.3891	1736.0000
5.4096	1726.0000
5.4301	1637.0000
5.4506	1553.0000
5.4710	1652.0000
5.4915	1607.0000
5.5120	1586.0000
5.5325	1603.0000
5.5529	1585.0000
5.5734	1546.0000
5.5939	1526.0000
5.6144	1610.0000
5.6348	1535.0000
5.6553	1541.0000
5.6758	1494.0000
5.6963	1549.0000
5.7167	1527.0000
5.7372	1485.0000
5.7577	1523.0000
5.7782	1467.0000
5.7987	1476.0000
5.8191	1491.0000
5.8396	1413.0000
5.8601	1430.0000
5.8806	1386.0000
5.9010	1404.0000
5.9215	1373.0000
5.9420	1359.0000
5.9625	1356.0000
5.9829	1364.0000
6.0034	1358.0000
6.0239	1344.0000
6.0444	1295.0000
6.0648	1311.0000
6.0853	1290.0000
6.1058	1305.0000
6.1263	1390.0000
6.1467	1206.0000
6.1672	1287.0000
6.1877	1249.0000
6.2082	1312.0000
6.2286	1268.0000
6.2491	1275.0000
6.2696	1282.0000
6.2901	1264.0000
6.3105	1240.0000
6.3310	1172.0000
6.3515	1202.0000
6.3720	1177.0000
6.3924	1224.0000
6.4129	1170.0000
6.4334	1154.0000
6.4539	1092.0000
6.4743	1153.0000
6.4948	1103.0000
6.5153	1069.0000
6.5358	1133.0000
6.5562	1118.0000
6.5767	1156.0000
6.5972	1078.0000
6.6177	1102.0000
6.6382	1115.0000
6.6586	1077.0000
6.6791	1033.0000
6.6996	1079.0000
6.7201	1078.0000
6.7405	1052.0000
6.7610	1089.0000
6.7815	1059.0000
6.8020	1014.0000
6.8224	1022.0000
6.8429	998.0000
6.8634	1022.0000
6.8839	1005.0000
6.9043	1000.0000
6.9248	1004.0000
6.9453	1027.0000
6.9658	929.0000
6.9862	982.0000
7.0067	968.0000
7.0272	963.0000
7.0477	977.0000
7.0681	968.0000
7.0886	923.0000
7.1091	896.0000
7.1296	959.0000
7.1500	965.0000
7.1705	920.0000
7.1910	934.0000
7.2115	906.0000
7.2319	831.0000
7.2524	904.0000
7.2729	892.0000
7.2934	951.0000
7.3138	936.0000
7.3343	880.0000
7.3548	865.0000
7.3753	812.0000
7.3958	841.0000
7.4162	845.0000
7.4367	897.0000
7.4572	852.0000
7.4777	902.0000
7.4981	832.0000
7.5186	764.0000
7.5391	799.0000
7.5596	842.0000
7.5800	757.0000
7.6005	791.0000
7.6210	819.0000
7.6415	791.0000
7.6619	812.0000
7.6824	770.0000
7.7029	779.0000
7.7234	782.0000
7.7438	788.0000
7.7643	788.0000
7.7848	815.0000
7.8053	759.0000
7.8257	720.0000
7.8462	749.0000
7.8667	744.0000
7.8872	748.0000
7.9076	697.0000
7.9281	690.0000
7.9486	707.0000
7.9691	742.0000
7.9895	668.0000
8.0100	708.0000
8.0305	687.0000
8.0510	711.0000
8.0714	670.0000
8.0919	695.0000
8.1124	658.0000
8.1329	698.0000
8.1533	701.0000
8.1738	654.0000
8.1943	665.0000
8.2148	675.0000
8.2353	651.0000
8.2557	654.0000
8.2762	653.0000
8.2967	675.0000
8.3172	659.0000
8.3376	646.0000
8.3581	681.0000
8.3786	671.0000
8.3991	637.0000
8.4195	639.0000
8.4400	649.0000
8.4605	643.0000
8.4810	642.0000
8.5014	628.0000
8.5219	669.0000
8.5424	651.0000
8.5629	617.0000
8.5833	618.0000
8.6038	584.0000
8.6243	607.0000
8.6448	590.0000
8.6652	634.0000
8.6857	660.0000
8.7062	614.0000
8.7267	616.0000
8.7471	635.0000
8.7676	579.0000
8.7881	661.0000
8.8086	562.0000
8.8290	572.0000
8.8495	589.0000
8.8700	621.0000
8.8905	618.0000
8.9109	585.0000
8.9314	624.0000
8.9519	572.0000
8.9724	577.0000
8.9929	569.0000
9.0133	625.0000
9.0338	583.0000
9.0543	599.0000
9.0748	588.0000
9.0952	589.0000
9.1157	562.0000
9.1362	586.0000
9.1567	573.0000
9.1771	575.0000
9.1976	574.0000
9.2181	582.0000
9.2386	616.0000
9.2590	549.0000
9.2795	586.0000
9.3000	584.0000
9.3205	550.0000
9.3409	539.0000
9.3614	569.0000
9.3819	530.0000
9.4024	539.0000
9.4228	583.0000
9.4433	536.0000
9.4638	583.0000
9.4843	587.0000
9.5047	565.0000
9.5252	533.0000
9.5457	590.0000
9.5662	585.0000
9.5866	552.0000
9.6071	568.0000
9.6276	568.0000
9.6481	547.0000
9.6685	522.0000
9.6890	553.0000
9.7095	533.0000
9.7300	517.0000
9.7505	503.0000
9.7709	589.0000
9.7914	549.0000
9.8119	556.0000
9.8324	566.0000
9.8528	523.0000
9.8733	525.0000
9.8938	561.0000
9.9143	517.0000
9.9347	548.0000
9.9552	550.0000
9.9757	538.0000
9.9962	567.0000
10.0166	538.0000
10.0371	509.0000
10.0576	498.0000
10.0781	466.0000
10.0985	488.0000
10.1190	556.0000
10.1395	538.0000
10.1600	498.0000
10.1804	480.0000
10.2009	566.0000
10.2214	520.0000
10.2419	546.0000
10.2623	517.0000
10.2828	523.0000
10.3033	556.0000
10.3238	508.0000
10.3442	531.0000
10.3647	499.0000
10.3852	515.0000
10.4057	503.0000
10.4261	514.0000
10.4466	486.0000
10.4671	511.0000
10.4876	546.0000
10.5080	514.0000
10.5285	534.0000
10.5490	501.0000
10.5695	536.0000
10.5900	501.0000
10.6104	526.0000
10.6309	465.0000
10.6514	490.0000
10.6719	515.0000
10.6923	495.0000
10.7128	474.0000
10.7333	501.0000
10.7538	499.0000
10.7742	483.0000
10.7947	485.0000
10.8152	495.0000
10.8357	499.0000
10.8561	507.0000
10.8766	495.0000
10.8971	501.0000
10.9176	521.0000
10.9380	514.0000
10.9585	468.0000
10.9790	507.0000
10.9995	518.0000
11.0199	501.0000
11.0404	491.0000
11.0609	460.0000
11.0814	490.0000
11.1018	515.0000
11.1223	458.0000
11.1428	512.0000
11.1633	496.0000
11.1837	492.0000
11.2042	527.0000
11.2247	499.0000
11.2452	461.0000
11.2656	502.0000
11.2861	468.0000
11.3066	485.0000
11.3271	497.0000
11.3476	523.0000
11.3680	477.0000
11.3885	529.0000
11.4090	469.0000
11.4295	503.0000
11.4499	481.0000
11.4704	519.0000
11.4909	462.0000
11.5114	485.0000
11.5318	487.0000
11.5523	510.0000
11.5728	484.0000
11.5933	482.0000
11.6137	464.0000
11.6342	490.0000
11.6547	488.0000
11.6752	501.0000
11.6956	508.0000
11.7161	509.0000
11.7366	514.0000
11.7571	491.0000
11.7775	496.0000
11.7980	475.0000
11.8185	508.0000
11.8390	495.0000
11.8594	481.0000
11.8799	501.0000
11.9004	507.0000
11.9209	468.0000
11.9413	540.0000
11.9618	479.0000
11.9823	532.0000
12.0028	501.0000
12.0232	488.0000
12.0437	483.0000
12.0642	444.0000
12.0847	470.0000
12.1051	495.0000
12.1256	499.0000
12.1461	477.0000
12.1666	489.0000
12.1871	517.0000
12.2075	524.0000
12.2280	448.0000
12.2485	478.0000
12.2690	524.0000
12.2894	457.0000
12.3099	517.0000
12.3304	499.0000
12.3509	521.0000
12.3713	463.0000
12.3918	506.0000
12.4123	478.0000
12.4328	482.0000
12.4532	490.0000
12.4737	508.0000
12.4942	510.0000
12.5147	478.0000
12.5351	472.0000
12.5556	473.0000
12.5761	523.0000
12.5966	514.0000
12.6170	522.0000
12.6375	493.0000
12.6580	489.0000
12.6785	453.0000
12.6989	482.0000
12.7194	525.0000
12.7399	454.0000
12.7604	522.0000
12.7808	483.0000
12.8013	481.0000
12.8218	510.0000
12.8423	512.0000
12.8627	467.0000
12.8832	455.0000
12.9037	503.0000
12.9242	518.0000
12.9447	491.0000
12.9651	484.0000
12.9856	490.0000
13.0061	503.0000
13.0266	502.0000
13.0470	489.0000
13.0675	490.0000
13.0880	461.0000
13.1085	508.0000
13.1289	482.0000
13.1494	501.0000
13.1699	526.0000
13.1904	526.0000
13.2108	527.0000
13.2313	493.0000
13.2518	488.0000
13.2723	471.0000
13.2927	500.0000
13.3132	490.0000
13.3337	524.0000
13.3542	492.0000
13.3746	472.0000
13.3951	479.0000
13.4156	498.0000
13.4361	483.0000
13.4565	473.0000
13.4770	453.0000
13.4975	486.0000
13.5180	495.0000
13.5384	455.0000
13.5589	541.0000
13.5794	463.0000
13.5999	501.0000
13.6203	507.0000
13.6408	498.0000
13.6613	467.0000
13.6818	485.0000
13.7023	457.0000
13.7227	489.0000
13.7432	496.0000
13.7637	532.0000
13.7842	509.0000
13.8046	541.0000
13.8251	513.0000
13.8456	486.0000
13.8661	529.0000
13.8865	482.0000
13.9070	479.0000
13.9275	519.0000
13.9480	527.0000
13.9684	491.0000
13.9889	507.0000
14.0094	552.0000
14.0299	520.0000
14.0503	486.0000
14.0708	494.0000
14.0913	524.0000
14.1118	517.0000
14.1322	500.0000
14.1527	518.0000
14.1732	542.0000
14.1937	504.0000
14.2141	515.0000
14.2346	499.0000
14.2551	511.0000
14.2756	470.0000
14.2960	518.0000
14.3165	552.0000
14.3370	522.0000
14.3575	521.0000
14.3779	520.0000
14.3984	485.0000
14.4189	544.0000
14.4394	485.0000
14.4598	515.0000
14.4803	545.0000
14.5008	515.0000
14.5213	517.0000
14.5418	528.0000
14.5622	478.0000
14.5827	507.0000
14.6032	521.0000
14.6237	540.0000
14.6441	535.0000
14.6646	498.0000
14.6851	502.0000
14.7056	477.0000
14.7260	503.0000
14.7465	491.0000
14.7670	509.0000
14.7875	518.0000
14.8079	524.0000
14.8284	545.0000
14.8489	541.0000
14.8694	498.0000
14.8898	490.0000
14.9103	517.0000
14.9308	547.0000
14.9513	488.0000
14.9717	532.0000
14.9922	536.0000
15.0127	477.0000
15.0332	517.0000
15.0536	509.0000
15.0741	512.0000
15.0946	501.0000
15.1151	526.0000
15.1355	543.0000
15.1560	515.0000
15.1765	547.0000
15.1970	516.0000
15.2174	479.0000
15.2379	487.0000
15.2584	529.0000
15.2789	479.0000
15.2994	511.0000
15.3198	509.0000
15.3403	546.0000
15.3608	533.0000
15.3813	502.0000
15.4017	548.0000
15.4222	540.0000
15.4427	546.0000
15.4632	519.0000
15.4836	490.0000
15.5041	589.0000
15.5246	579.0000
15.5451	547.0000
15.5655	487.0000
15.5860	557.0000
15.6065	542.0000
15.6270	559.0000
15.6474	562.0000
15.6679	548.0000
15.6884	517.0000
15.7089	528.0000
15.7293	545.0000
15.7498	554.0000
15.7703	540.0000
15.7908	536.0000
15.8112	563.0000
15.8317	522.0000
15.8522	535.0000
15.8727	571.0000
15.8931	529.0000
15.9136	578.0000
15.9341	531.0000
15.9546	539.0000
15.9750	528.0000
15.9955	583.0000
16.0160	526.0000
16.0365	559.0000
16.0569	561.0000
16.0774	575.0000
16.0979	561.0000
16.1184	511.0000
16.1389	575.0000
16.1593	564.0000
16.1798	586.0000
16.2003	558.0000
16.2208	553.0000
16.2412	555.0000
16.2617	570.0000
16.2822	567.0000
16.3027	565.0000
16.3231	552.0000
16.3436	543.0000
16.3641	534.0000
16.3846	556.0000
16.4050	523.0000
16.4255	526.0000
16.4460	536.0000
16.4665	534.0000
16.4869	554.0000
16.5074	554.0000
16.5279	601.0000
16.5484	538.0000
16.5688	496.0000
16.5893	584.0000
16.6098	544.0000
16.6303	545.0000
16.6507	556.0000
16.6712	536.0000
16.6917	538.0000
16.7122	541.0000
16.7326	532.0000
16.7531	547.0000
16.7736	546.0000
16.7941	537.0000
16.8145	547.0000
16.8350	555.0000
16.8555	555.0000
16.8760	515.0000
16.8965	525.0000
16.9169	531.0000
16.9374	536.0000
16.9579	547.0000
16.9784	520.0000
16.9988	520.0000
17.0193	540.0000
17.0398	540.0000
17.0603	516.0000
17.0807	567.0000
17.1012	591.0000
17.1217	543.0000
17.1422	502.0000
17.1626	580.0000
17.1831	556.0000
17.2036	567.0000
17.2241	536.0000
17.2445	510.0000
17.2650	548.0000
17.2855	516.0000
17.3060	520.0000
17.3264	551.0000
17.3469	568.0000
17.3674	526.0000
17.3879	547.0000
17.4083	516.0000
17.4288	519.0000
17.4493	540.0000
17.4698	545.0000
17.4902	528.0000
17.5107	524.0000
17.5312	539.0000
17.5517	548.0000
17.5721	566.0000
17.5926	520.0000
17.6131	497.0000
17.6336	524.0000
17.6540	557.0000
17.6745	523.0000
17.6950	548.0000
17.7155	537.0000
17.7360	523.0000
17.7564	552.0000
17.7769	550.0000
17.7974	512.0000
17.8179	533.0000
17.8383	539.0000
17.8588	577.0000
17.8793	553.0000
17.8998	539.0000
17.9202	530.0000
17.9407	562.0000
17.9612	565.0000
17.9817	567.0000
18.0021	521.0000
18.0226	509.0000
18.0431	535.0000
18.0636	542.0000
18.0840	531.0000
18.1045	564.0000
18.1250	584.0000
18.1455	547.0000
18.1659	525.0000
18.1864	511.0000
18.2069	523.0000
18.2274	556.0000
18.2478	533.0000
18.2683	558.0000
18.2888	582.0000
18.3093	559.0000
18.3297	555.0000
18.3502	569.0000
18.3707	586.0000
18.3912	520.0000
18.4116	569.0000
18.4321	509.0000
18.4526	550.0000
18.4731	567.0000
18.4936	574.0000
18.5140	563.0000
18.5345	538.0000
18.5550	537.0000
18.5755	554.0000
18.5959	553.0000
18.6164	592.0000
18.6369	541.0000
18.6574	552.0000
18.6778	574.0000
18.6983	550.0000
18.7188	599.0000
18.7393	570.0000
18.7597	561.0000
18.7802	561.0000
18.8007	614.0000
18.8212	564.0000
18.8416	573.0000
18.8621	600.0000
18.8826	583.0000
18.9031	564.0000
18.9235	533.0000
18.9440	540.0000
18.9645	565.0000
18.9850	580.0000
19.0054	534.0000
19.0259	545.0000
19.0464	545.0000
19.0669	562.0000
19.0873	507.0000
19.1078	552.0000
19.1283	545.0000
19.1488	522.0000
19.1692	506.0000
19.1897	563.0000
19.2102	603.0000
19.2307	566.0000
19.2512	541.0000
19.2716	573.0000
19.2921	592.0000
19.3126	576.0000
19.3331	569.0000
19.3535	601.0000
19.3740	575.0000
19.3945	629.0000
19.4150	573.0000
19.4354	535.0000
19.4559	599.0000
19.4764	600.0000
19.4969	587.0000
19.5173	570.0000
19.5378	590.0000
19.5583	582.0000
19.5788	598.0000
19.5992	545.0000
19.6197	574.0000
19.6402	582.0000
19.6607	573.0000
19.6811	546.0000
19.7016	583.0000
19.7221	567.0000
19.7426	527.0000
19.7630	604.0000
19.7835	559.0000
19.8040	556.0000
19.8245	555.0000
19.8449	571.0000
19.8654	547.0000
19.8859	601.0000
19.9064	596.0000
19.9268	590.0000
19.9473	641.0000
19.9678	593.0000
19.9883	569.0000
20.0087	585.0000
20.0292	592.0000
20.0497	591.0000
20.0702	573.0000
20.0907	566.0000
20.1111	579.0000
20.1316	566.0000
20.1521	588.0000
20.1726	525.0000
20.1930	575.0000
20.2135	599.0000
20.2340	573.0000
20.2545	584.0000
20.2749	595.0000
20.2954	616.0000
20.3159	621.0000
20.3364	580.0000
20.3568	537.0000
20.3773	573.0000
20.3978	570.0000
20.4183	556.0000
20.4387	602.0000
20.4592	596.0000
20.4797	605.0000
20.5002	539.0000
20.5206	562.0000
20.5411	584.0000
20.5616	555.0000
20.5821	593.0000
20.6025	557.0000
20.6230	604.0000
20.6435	595.0000
20.6640	571.0000
20.6844	541.0000
20.7049	569.0000
20.7254	605.0000
20.7459	619.0000
20.7663	638.0000
20.7868	547.0000
20.8073	561.0000
20.8278	557.0000
20.8483	552.0000
20.8687	571.0000
20.8892	574.0000
20.9097	641.0000
20.9302	599.0000
20.9506	609.0000
20.9711	634.0000
20.9916	575.0000
21.0121	620.0000
21.0325	598.0000
21.0530	594.0000
21.0735	544.0000
21.0940	575.0000
21.1144	605.0000
21.1349	621.0000
21.1554	598.0000
21.1759	632.0000
21.1963	584.0000
21.2168	579.0000
21.2373	597.0000
21.2578	605.0000
21.2782	629.0000
21.2987	658.0000
21.3192	618.0000
21.3397	623.0000
21.3601	638.0000
21.3806	621.0000
21.4011	582.0000
21.4216	626.0000
21.4420	595.0000
21.4625	614.0000
21.4830	612.0000
21.5035	599.0000
21.5239	602.0000
21.5444	582.0000
21.5649	614.0000
21.5854	585.0000
21.6058	642.0000
21.6263	622.0000
21.6468	618.0000
21.6673	569.0000
21.6878	593.0000
21.7082	661.0000
21.7287	608.0000
21.7492	662.0000
21.7697	592.0000
21.7901	609.0000
21.8106	610.0000
21.8311	578.0000
21.8516	654.0000
21.8720	609.0000
21.8925	600.0000
21.9130	570.0000
21.9335	576.0000
21.9539	597.0000
21.9744	596.0000
21.9949	579.0000
22.0154	617.0000
22.0358	639.0000
22.0563	629.0000
22.0768	614.0000
22.0973	626.0000
22.1177	651.0000
22.1382	629.0000
22.1587	602.0000
22.1792	579.0000
22.1996	598.0000
22.2201	631.0000
22.2406	625.0000
22.2611	597.0000
22.2815	637.0000
22.3020	595.0000
22.3225	600.0000
22.3430	608.0000
22.3634	584.0000
22.3839	608.0000
22.4044	604.0000
22.4249	598.0000
22.4454	654.0000
22.4658	700.0000
22.4863	613.0000
22.5068	601.0000
22.5273	666.0000
22.5477	613.0000
22.5682	576.0000
22.5887	643.0000
22.6092	581.0000
22.6296	583.0000
22.6501	588.0000
22.6706	622.0000
22.6911	615.0000
22.7115	653.0000
22.7320	629.0000
22.7525	611.0000
22.7730	608.0000
22.7934	619.0000
22.8139	635.0000
22.8344	617.0000
22.8549	598.0000
22.8753	637.0000
22.8958	629.0000
22.9163	637.0000
22.9368	658.0000
22.9572	619.0000
22.9777	642.0000
22.9982	614.0000
23.0187	665.0000
23.0391	659.0000
23.0596	604.0000
23.0801	645.0000
23.1006	627.0000
23.1210	648.0000
23.1415	620.0000
23.1620	671.0000
23.1825	596.0000
23.2030	661.0000
23.2234	625.0000
23.2439	669.0000
23.2644	631.0000
23.2849	613.0000
23.3053	684.0000
23.3258	643.0000
23.3463	570.0000
23.3668	582.0000
23.3872	597.0000
23.4077	636.0000
23.4282	632.0000
23.4487	617.0000
23.4691	653.0000
23.4896	602.0000
23.5101	665.0000
23.5306	657.0000
23.5510	649.0000
23.5715	648.0000
23.5920	657.0000
23.6125	590.0000
23.6329	663.0000
23.6534	643.0000
23.6739	663.0000
23.6944	613.0000
23.7148	661.0000
23.7353	667.0000
23.7558	670.0000
23.7763	654.0000
23.7967	638.0000
23.8172	682.0000
23.8377	667.0000
23.8582	630.0000
23.8786	697.0000
23.8991	635.0000
23.9196	666.0000
23.9401	664.0000
23.9605	620.0000
23.9810	655.0000
24.0015	634.0000
24.0220	658.0000
24.0425	658.0000
24.0629	637.0000
24.0834	652.0000
24.1039	675.0000
24.1244	717.0000
24.1448	622.0000
24.1653	630.0000
24.1858	708.0000
24.2063	642.0000
24.2267	671.0000
24.2472	620.0000
24.2677	664.0000
24.2882	674.0000
24.3086	637.0000
24.3291	686.0000
24.3496	623.0000
24.3701	647.0000
24.3905	661.0000
24.4110	606.0000
24.4315	652.0000
24.4520	678.0000
24.4724	620.0000
24.4929	621.0000
24.5134	699.0000
24.5339	654.0000
24.5543	635.0000
24.5748	657.0000
24.5953	698.0000
24.6158	727.0000
24.6362	725.0000
24.6567	644.0000
24.6772	669.0000
24.6977	695.0000
24.7181	634.0000
24.7386	588.0000
24.7591	659.0000
24.7796	687.0000
24.8001	685.0000
24.8205	620.0000
24.8410	650.0000
24.8615	694.0000
24.8820	650.0000
24.9024	662.0000
24.9229	677.0000
24.9434	624.0000
24.9639	639.0000
24.9843	642.0000
25.0048	681.0000
25.0253	651.0000
25.0458	646.0000
25.0662	630.0000
25.0867	654.0000
25.1072	706.0000
25.1277	634.0000
25.1481	664.0000
25.1686	639.0000
25.1891	670.0000
25.2096	642.0000
25.2300	615.0000
25.2505	711.0000
25.2710	602.0000
25.2915	639.0000
25.3119	590.0000
25.3324	668.0000
25.3529	659.0000
25.3734	668.0000
25.3938	619.0000
25.4143	648.0000
25.4348	657.0000
25.4553	661.0000
25.4757	674.0000
25.4962	705.0000
25.5167	652.0000
25.5372	640.0000
25.5576	646.0000
25.5781	675.0000
25.5986	615.0000
25.6191	672.0000
25.6396	613.0000
25.6600	666.0000
25.6805	638.0000
25.7010	656.0000
25.7215	672.0000
25.7419	692.0000
25.7624	633.0000
25.7829	636.0000
25.8034	665.0000
25.8238	649.0000
25.8443	697.0000
25.8648	677.0000
25.8853	651.0000
25.9057	653.0000
25.9262	692.0000
25.9467	666.0000
25.9672	700.0000
25.9876	646.0000
26.0081	632.0000
26.0286	669.0000
26.0491	685.0000
26.0695	640.0000
26.0900	670.0000
26.1105	684.0000
26.1310	621.0000
26.1514	630.0000
26.1719	622.0000
26.1924	612.0000
26.2129	639.0000
26.2333	680.0000
26.2538	630.0000
26.2743	656.0000
26.2948	609.0000
26.3152	650.0000
26.3357	644.0000
26.3562	672.0000
26.3767	633.0000
26.3972	680.0000
26.4176	632.0000
26.4381	686.0000
26.4586	641.0000
26.4791	637.0000
26.4995	658.0000
26.5200	647.0000
26.5405	669.0000
26.5610	645.0000
26.5814	597.0000
26.6019	637.0000
26.6224	661.0000
26.6429	626.0000
26.6633	652.0000
26.6838	633.0000
26.7043	605.0000
26.7248	616.0000
26.7452	647.0000
26.7657	619.0000
26.7862	637.0000
26.8067	621.0000
26.8271	637.0000
26.8476	599.0000
26.8681	634.0000
26.8886	689.0000
26.9090	640.0000
26.9295	593.0000
26.9500	580.0000
26.9705	648.0000
26.9909	659.0000
27.0114	634.0000
27.0319	600.0000
27.0524	638.0000
27.0728	637.0000
27.0933	608.0000
27.1138	606.0000
27.1343	652.0000
27.1548	597.0000
27.1752	639.0000
27.1957	645.0000
27.2162	642.0000
27.2367	602.0000
27.2571	645.0000
27.2776	582.0000
27.2981	601.0000
27.3186	655.0000
27.3390	607.0000
27.3595	628.0000
27.3800	625.0000
27.4005	647.0000
27.4209	615.0000
27.4414	623.0000
27.4619	616.0000
27.4824	668.0000
27.5028	650.0000
27.5233	622.0000
27.5438	605.0000
27.5643	640.0000
27.5847	622.0000
27.6052	619.0000
27.6257	620.0000
27.6462	626.0000
27.6666	593.0000
27.6871	655.0000
27.7076	591.0000
27.7281	649.0000
27.7485	588.0000
27.7690	581.0000
27.7895	670.0000
27.8100	617.0000
27.8304	647.0000
27.8509	648.0000
27.8714	638.0000
27.8919	619.0000
27.9123	601.0000
27.9328	607.0000
27.9533	630.0000
27.9738	623.0000
27.9943	584.0000
28.0147	599.0000
28.0352	682.0000
28.0557	597.0000
28.0762	647.0000
28.0966	592.0000
28.1171	655.0000
28.1376	620.0000
28.1581	613.0000
28.1785	640.0000
28.1990	637.0000
28.2195	590.0000
28.2400	629.0000
28.2604	602.0000
28.2809	643.0000
28.3014	617.0000
28.3219	563.0000
28.3423	592.0000
28.3628	663.0000
28.3833	615.0000
28.4038	592.0000
28.4242	650.0000
28.4447	596.0000
28.4652	674.0000
28.4857	624.0000
28.5061	604.0000
28.5266	640.0000
28.5471	630.0000
28.5676	636.0000
28.5880	605.0000
28.6085	619.0000
28.6290	610.0000
28.6495	616.0000
28.6699	606.0000
28.6904	616.0000
28.7109	621.0000
28.7314	629.0000
28.7519	586.0000
28.7723	607.0000
28.7928	604.0000
28.8133	608.0000
28.8338	586.0000
28.8542	634.0000
28.8747	660.0000
28.8952	614.0000
28.9157	646.0000
28.9361	562.0000
28.9566	584.0000
28.9771	568.0000
28.9976	592.0000
29.0180	609.0000
29.0385	610.0000
29.0590	617.0000
29.0795	584.0000
29.0999	637.0000
29.1204	607.0000
29.1409	653.0000
29.1614	624.0000
29.1818	655.0000
29.2023	588.0000
29.2228	618.0000
29.2433	614.0000
29.2637	637.0000
29.2842	658.0000
29.3047	567.0000
29.3252	610.0000
29.3456	634.0000
29.3661	594.0000
29.3866	644.0000
29.4071	603.0000
29.4275	661.0000
29.4480	618.0000
29.4685	611.0000
29.4890	607.0000
29.5094	599.0000
29.5299	665.0000
29.5504	628.0000
29.5709	634.0000
29.5914	569.0000
29.6118	606.0000
29.6323	592.0000
29.6528	615.0000
29.6733	604.0000
29.6937	614.0000
29.7142	616.0000
29.7347	585.0000
29.7552	601.0000
29.7756	666.0000
29.7961	581.0000
29.8166	561.0000
29.8371	642.0000
29.8575	643.0000
29.8780	616.0000
29.8985	610.0000
29.9190	590.0000
29.9394	634.0000
29.9599	606.0000
29.9804	605.0000
30.0009	640.0000
30.0213	670.0000
30.0418	571.0000
30.0623	611.0000
30.0828	659.0000
30.1032	621.0000
30.1237	600.0000
30.1442	612.0000
30.1647	630.0000
30.1851	626.0000
30.2056	636.0000
30.2261	621.0000
30.2466	604.0000
30.2670	611.0000
30.2875	598.0000
30.3080	628.0000
30.3285	645.0000
30.3490	613.0000
30.3694	589.0000
30.3899	596.0000
30.4104	590.0000
30.4309	628.0000
30.4513	610.0000
30.4718	602.0000
30.4923	612.0000
30.5128	619.0000
30.5332	603.0000
30.5537	597.0000
30.5742	601.0000
30.5947	655.0000
30.6151	645.0000
30.6356	618.0000
30.6561	603.0000
30.6766	615.0000
30.6970	629.0000
30.7175	629.0000
30.7380	588.0000
30.7585	594.0000
30.7789	590.0000
30.7994	616.0000
30.8199	594.0000
30.8404	633.0000
30.8608	611.0000
30.8813	632.0000
30.9018	661.0000
30.9223	648.0000
30.9427	633.0000
30.9632	639.0000
30.9837	619.0000
31.0042	640.0000
31.0246	647.0000
31.0451	613.0000
31.0656	599.0000
31.0861	652.0000
31.1066	583.0000
31.1270	586.0000
31.1475	629.0000
31.1680	647.0000
31.1885	632.0000
31.2089	628.0000
31.2294	641.0000
31.2499	626.0000
31.2704	675.0000
31.2908	635.0000
31.3113	624.0000
31.3318	663.0000
31.3523	597.0000
31.3727	628.0000
31.3932	627.0000
31.4137	632.0000
31.4342	639.0000
31.4546	641.0000
31.4751	666.0000
31.4956	637.0000
31.5161	642.0000
31.5365	618.0000
31.5570	677.0000
31.5775	629.0000
31.5980	601.0000
31.6184	646.0000
31.6389	606.0000
31.6594	638.0000
31.6799	608.0000
31.7003	639.0000
31.7208	619.0000
31.7413	649.0000
31.7618	618.0000
31.7822	615.0000
31.8027	652.0000
31.8232	640.0000
31.8437	634.0000
31.8641	668.0000
31.8846	640.0000
31.9051	661.0000
31.9256	664.0000
31.9461	643.0000
31.9665	640.0000
31.9870	678.0000
32.0075	650.0000
32.0280	605.0000
32.0484	626.0000
32.0689	636.0000
32.0894	658.0000
32.1099	656.0000
32.1303	648.0000
32.1508	659.0000
32.1713	658.0000
32.1918	666.0000
32.2122	637.0000
32.2327	669.0000
32.2532	640.0000
32.2737	697.0000
32.2941	649.0000
32.3146	682.0000
32.3351	672.0000
32.3556	692.0000
32.3760	603.0000
32.3965	656.0000
32.4170	688.0000
32.4375	692.0000
32.4579	694.0000
32.4784	671.0000
32.4989	639.0000
32.5194	719.0000
32.5398	695.0000
32.5603	648.0000
32.5808	608.0000
32.6013	655.0000
32.6217	669.0000
32.6422	732.0000
32.6627	685.0000
32.6832	696.0000
32.7037	676.0000
32.7241	722.0000
32.7446	658.0000
32.7651	670.0000
32.7856	674.0000
32.8060	723.0000
32.8265	638.0000
32.8470	677.0000
32.8675	644.0000
32.8879	641.0000
32.9084	674.0000
32.9289	662.0000
32.9494	679.0000
32.9698	697.0000
32.9903	680.0000
33.0108	650.0000
33.0313	699.0000
33.0517	669.0000
33.0722	656.0000
33.0927	705.0000
33.1132	658.0000
33.1336	647.0000
33.1541	662.0000
33.1746	683.0000
33.1951	715.0000
33.2155	680.0000
33.2360	670.0000
33.2565	723.0000
33.2770	667.0000
33.2974	676.0000
33.3179	686.0000
33.3384	714.0000
33.3589	692.0000
33.3793	672.0000
33.3998	680.0000
33.4203	694.0000
33.4408	612.0000
33.4612	636.0000
33.4817	651.0000
33.5022	670.0000
33.5227	675.0000
33.5432	659.0000
33.5636	672.0000
33.5841	662.0000
33.6046	726.0000
33.6251	658.0000
33.6455	687.0000
33.6660	666.0000
33.6865	662.0000
33.7070	662.0000
33.7274	675.0000
33.7479	722.0000
33.7684	672.0000
33.7889	655.0000
33.8093	680.0000
33.8298	659.0000
33.8503	668.0000
33.8708	699.0000
33.8912	636.0000
33.9117	705.0000
33.9322	682.0000
33.9527	660.0000
33.9731	721.0000
33.9936	669.0000
34.0141	669.0000
34.0346	648.0000
34.0550	710.0000
34.0755	689.0000
34.0960	711.0000
34.1165	679.0000
34.1369	691.0000
34.1574	670.0000
34.1779	692.0000
34.1984	696.0000
34.2188	689.0000
34.2393	670.0000
34.2598	670.0000
34.2803	658.0000
34.3008	707.0000
34.3212	699.0000
34.3417	673.0000
34.3622	616.0000
34.3827	673.0000
34.4031	732.0000
34.4236	668.0000
34.4441	689.0000
34.4646	698.0000
34.4850	689.0000
34.5055	667.0000
34.5260	668.0000
34.5465	642.0000
34.5669	695.0000
34.5874	696.0000
34.6079	689.0000
34.6284	698.0000
34.6488	720.0000
34.6693	660.0000
34.6898	657.0000
34.7103	670.0000
34.7307	650.0000
34.7512	687.0000
34.7717	664.0000
34.7922	672.0000
34.8126	706.0000
34.8331	696.0000
34.8536	681.0000
34.8741	679.0000
34.8945	733.0000
34.9150	672.0000
34.9355	729.0000
34.9560	698.0000
34.9764	705.0000
34.9969	679.0000
35.0174	719.0000
35.0379	677.0000
35.0583	658.0000
35.0788	704.0000
35.0993	706.0000
35.1198	700.0000
35.1403	735.0000
35.1607	707.0000
35.1812	732.0000
35.2017	681.0000
35.2222	759.0000
35.2426	720.0000
35.2631	681.0000
35.2836	717.0000
35.3041	722.0000
35.3245	711.0000
35.3450	685.0000
35.3655	707.0000
35.3860	718.0000
35.4064	715.0000
35.4269	740.0000
35.4474	720.0000
35.4679	708.0000
35.4883	704.0000
35.5088	690.0000
35.5293	677.0000
35.5498	713.0000
35.5702	686.0000
35.5907	729.0000
35.6112	675.0000
35.6317	680.0000
35.6521	733.0000
35.6726	728.0000
35.6931	722.0000
35.7136	719.0000
35.7340	751.0000
35.7545	709.0000
35.7750	757.0000
35.7955	724.0000
35.8159	709.0000
35.8364	719.0000
35.8569	727.0000
35.8774	722.0000
35.8979	755.0000
35.9183	745.0000
35.9388	748.0000
35.9593	763.0000
35.9798	723.0000
36.0002	752.0000
36.0207	720.0000
36.0412	719.0000
36.0617	753.0000
36.0821	755.0000
36.1026	767.0000
36.1231	754.0000
36.1436	760.0000
36.1640	794.0000
36.1845	785.0000
36.2050	790.0000
36.2255	764.0000
36.2459	779.0000
36.2664	754.0000
36.2869	749.0000
36.3074	748.0000
36.3278	780.0000
36.3483	792.0000
36.3688	762.0000
36.3893	828.0000
36.4097	789.0000
36.4302	761.0000
36.4507	825.0000
36.4712	806.0000
36.4916	797.0000
36.5121	787.0000
36.5326	776.0000
36.5531	750.0000
36.5735	751.0000
36.5940	786.0000
36.6145	811.0000
36.6350	782.0000
36.6555	826.0000
36.6759	767.0000
36.6964	793.0000
36.7169	780.0000
36.7374	799.0000
36.7578	761.0000
36.7783	809.0000
36.7988	792.0000
36.8193	804.0000
36.8397	782.0000
36.8602	827.0000
36.8807	812.0000
36.9012	784.0000
36.9216	784.0000
36.9421	806.0000
36.9626	847.0000
36.9831	803.0000
37.0035	824.0000
37.0240	763.0000
37.0445	836.0000
37.0650	850.0000
37.0854	820.0000
37.1059	844.0000
37.1264	807.0000
37.1469	849.0000
37.1673	844.0000
37.1878	850.0000
37.2083	858.0000
37.2288	871.0000
37.2492	836.0000
37.2697	876.0000
37.2902	793.0000
37.3107	852.0000
37.3311	844.0000
37.3516	844.0000
37.3721	872.0000
37.3926	857.0000
37.4130	848.0000
37.4335	847.0000
37.4540	835.0000
37.4745	978.0000
37.4950	875.0000
37.5154	866.0000
37.5359	879.0000
37.5564	896.0000
37.5769	890.0000
37.5973	860.0000
37.6178	895.0000
37.6383	946.0000
37.6588	880.0000
37.6792	877.0000
37.6997	908.0000
37.7202	902.0000
37.7407	889.0000
37.7611	907.0000
37.7816	915.0000
37.8021	898.0000
37.8226	920.0000
37.8430	959.0000
37.8635	927.0000
37.8840	930.0000
37.9045	998.0000
37.9249	947.0000
37.9454	972.0000
37.9659	942.0000
37.9864	994.0000
38.0068	988.0000
38.0273	966.0000
38.0478	985.0000
38.0683	998.0000
38.0887	947.0000
38.1092	995.0000
38.1297	987.0000
38.1502	1064.0000
38.1706	1018.0000
38.1911	995.0000
38.2116	1038.0000
38.2321	989.0000
38.2526	1032.0000
38.2730	1042.0000
38.2935	972.0000
38.3140	1070.0000
38.3345	1089.0000
38.3549	1008.0000
38.3754	1100.0000
38.3959	1050.0000
38.4164	1046.0000
38.4368	1102.0000
38.4573	1105.0000
38.4778	1132.0000
38.4983	1148.0000
38.5187	1058.0000
38.5392	1159.0000
38.5597	1082.0000
38.5802	1121.0000
38.6006	1149.0000
38.6211	1136.0000
38.6416	1210.0000
38.6621	1246.0000
38.6825	1140.0000
38.7030	1197.0000
38.7235	1217.0000
38.7440	1220.0000
38.7644	1200.0000
38.7849	1242.0000
38.8054	1175.0000
38.8259	1274.0000
38.8463	1267.0000
38.8668	1290.0000
38.8873	1317.0000
38.9078	1304.0000
38.9282	1332.0000
38.9487	1249.0000
38.9692	1323.0000
38.9897	1298.0000
39.0101	1267.0000
39.0306	1371.0000
39.0511	1354.0000
39.0716	1396.0000
39.0921	1324.0000
39.1125	1469.0000
39.1330	1388.0000
39.1535	1451.0000
39.1740	1430.0000
39.1944	1403.0000
39.2149	1415.0000
39.2354	1486.0000
39.2559	1502.0000
39.2763	1548.0000
39.2968	1587.0000
39.3173	1553.0000
39.3378	1576.0000
39.3582	1597.0000
39.3787	1573.0000
39.3992	1575.0000
39.4197	1574.0000
39.4401	1618.0000
39.4606	1658.0000
39.4811	1684.0000
39.5016	1723.0000
39.5220	1718.0000
39.5425	1709.0000
39.5630	1729.0000
39.5835	1701.0000
39.6039	1844.0000
39.6244	1843.0000
39.6449	1827.0000
39.6654	1827.0000
39.6858	1956.0000
39.7063	1919.0000
39.7268	1955.0000
39.7473	1993.0000
39.7677	2033.0000
39.7882	1981.0000
39.8087	2078.0000
39.8292	2065.0000
39.8497	2129.0000
39.8701	2061.0000
39.8906	2192.0000
39.9111	2224.0000
39.9316	2093.0000
39.9520	2189.0000
39.9725	2170.0000
39.9930	2185.0000
40.0135	2214.0000
40.0339	2258.0000
40.0544	2198.0000
40.0749	2262.0000
40.0954	2305.0000
40.1158	2305.0000
40.1363	2312.0000
40.1568	2313.0000
40.1773	2324.0000
40.1977	2412.0000
40.2182	2318.0000
40.2387	2354.0000
40.2592	2469.0000
40.2796	2416.0000
40.3001	2462.0000
40.3206	2479.0000
40.3411	2491.0000
40.3615	2429.0000
40.3820	2474.0000
40.4025	2446.0000
40.4230	2554.0000
40.4434	2457.0000
40.4639	2453.0000
40.4844	2497.0000
40.5049	2505.0000
40.5253	2498.0000
40.5458	2543.0000
40.5663	2537.0000
40.5868	2556.0000
40.6073	2545.0000
40.6277	2583.0000
40.6482	2619.0000
40.6687	2562.0000
40.6892	2633.0000
40.7096	2586.0000
40.7301	2610.0000
40.7506	2688.0000
40.7711	2546.0000
40.7915	2568.0000
40.8120	2566.0000
40.8325	2632.0000
40.8530	2560.0000
40.8734	2612.0000
40.8939	2660.0000
40.9144	2560.0000
40.9349	2594.0000
40.9553	2550.0000
40.9758	2613.0000
40.9963	2622.0000
41.0168	2612.0000
41.0372	2591.0000
41.0577	2536.0000
41.0782	2559.0000
41.0987	2557.0000
41.1191	2497.0000
41.1396	2543.0000
41.1601	2494.0000
41.1806	2525.0000
41.2010	2460.0000
41.2215	2528.0000
41.2420	2535.0000
41.2625	2463.0000
41.2829	2418.0000
41.3034	2436.0000
41.3239	2331.0000
41.3444	2305.0000
41.3648	2345.0000
41.3853	2315.0000
41.4058	2265.0000
41.4263	2242.0000
41.4468	2263.0000
41.4672	2264.0000
41.4877	2228.0000
41.5082	2250.0000
41.5287	2139.0000
41.5491	2115.0000
41.5696	1976.0000
41.5901	2064.0000
41.6106	1992.0000
41.6310	1997.0000
41.6515	1973.0000
41.6720	1881.0000
41.6925	1848.0000
41.7129	1872.0000
41.7334	1876.0000
41.7539	1880.0000
41.7744	1789.0000
41.7948	1859.0000
41.8153	1811.0000
41.8358	1656.0000
41.8563	1746.0000
41.8767	1649.0000
41.8972	1626.0000
41.9177	1694.0000
41.9382	1593.0000
41.9586	1632.0000
41.9791	1616.0000
41.9996	1579.0000
42.0201	1475.0000
42.0405	1567.0000
42.0610	1459.0000
42.0815	1445.0000
42.1020	1415.0000
42.1224	1388.0000
42.1429	1420.0000
42.1634	1324.0000
42.1839	1312.0000
42.2044	1314.0000
42.2248	1338.0000
42.2453	1245.0000
42.2658	1310.0000
42.2863	1276.0000
42.3067	1296.0000
42.3272	1238.0000
42.3477	1201.0000
42.3682	1172.0000
42.3886	1211.0000
42.4091	1205.0000
42.4296	1170.0000
42.4501	1118.0000
42.4705	1045.0000
42.4910	1113.0000
42.5115	1099.0000
42.5320	1108.0000
42.5524	1084.0000
42.5729	1187.0000
42.5934	1084.0000
42.6139	1142.0000
42.6343	1042.0000
42.6548	1087.0000
42.6753	1032.0000
42.6958	1046.0000
42.7162	1029.0000
42.7367	1016.0000
42.7572	1056.0000
42.7777	1098.0000
42.7981	1015.0000
42.8186	961.0000
42.8391	1005.0000
42.8596	981.0000
42.8800	987.0000
42.9005	946.0000
42.9210	970.0000
42.9415	913.0000
42.9619	928.0000
42.9824	950.0000
43.0029	918.0000
43.0234	937.0000
43.0439	901.0000
43.0643	958.0000
43.0848	876.0000
43.1053	891.0000
43.1258	890.0000
43.1462	928.0000
43.1667	927.0000
43.1872	916.0000
43.2077	871.0000
43.2281	872.0000
43.2486	897.0000
43.2691	875.0000
43.2896	897.0000
43.3100	889.0000
43.3305	894.0000
43.3510	913.0000
43.3715	878.0000
43.3919	892.0000
43.4124	878.0000
43.4329	838.0000
43.4534	909.0000
43.4738	884.0000
43.4943	857.0000
43.5148	809.0000
43.5353	841.0000
43.5557	832.0000
43.5762	814.0000
43.5967	866.0000
43.6172	855.0000
43.6376	871.0000
43.6581	828.0000
43.6786	878.0000
43.6991	861.0000
43.7195	830.0000
43.7400	790.0000
43.7605	821.0000
43.7810	829.0000
43.8015	794.0000
43.8219	812.0000
43.8424	791.0000
43.8629	810.0000
43.8834	858.0000
43.9038	824.0000
43.9243	853.0000
43.9448	843.0000
43.9653	854.0000
43.9857	753.0000
44.0062	798.0000
44.0267	876.0000
44.0472	830.0000
44.0676	802.0000
44.0881	844.0000
44.1086	807.0000
44.1291	854.0000
44.1495	813.0000
44.1700	826.0000
44.1905	793.0000
44.2110	776.0000
44.2314	781.0000
44.2519	803.0000
44.2724	823.0000
44.2929	783.0000
44.3133	831.0000
44.3338	811.0000
44.3543	814.0000
44.3748	849.0000
44.3952	815.0000
44.4157	835.0000
44.4362	779.0000
44.4567	854.0000
44.4771	822.0000
44.4976	824.0000
44.5181	816.0000
44.5386	796.0000
44.5591	805.0000
44.5795	798.0000
44.6000	787.0000
44.6205	864.0000
44.6410	808.0000
44.6614	843.0000
44.6819	858.0000
44.7024	871.0000
44.7229	860.0000
44.7433	789.0000
44.7638	867.0000
44.7843	833.0000
44.8048	866.0000
44.8252	804.0000
44.8457	827.0000
44.8662	882.0000
44.8867	830.0000
44.9071	887.0000
44.9276	893.0000
44.9481	863.0000
44.9686	823.0000
44.9890	824.0000
45.0095	865.0000
45.0300	868.0000
45.0505	845.0000
45.0709	885.0000
45.0914	823.0000
45.1119	783.0000
45.1324	897.0000
45.1528	860.0000
45.1733	861.0000
45.1938	825.0000
45.2143	855.0000
45.2347	877.0000
45.2552	928.0000
45.2757	888.0000
45.2962	922.0000
45.3166	852.0000
45.3371	911.0000
45.3576	921.0000
45.3781	878.0000
45.3986	941.0000
45.4190	926.0000
45.4395	934.0000
45.4600	917.0000
45.4805	925.0000
45.5009	921.0000
45.5214	962.0000
45.5419	914.0000
45.5624	903.0000
45.5828	997.0000
45.6033	901.0000
45.6238	936.0000
45.6443	927.0000
45.6647	884.0000
45.6852	893.0000
45.7057	911.0000
45.7262	958.0000
45.7466	924.0000
45.7671	938.0000
45.7876	997.0000
45.8081	997.0000
45.8285	939.0000
45.8490	1021.0000
45.8695	1003.0000
45.8900	936.0000
45.9104	1054.0000
45.9309	1059.0000
45.9514	1033.0000
45.9719	1049.0000
45.9923	998.0000
46.0128	1027.0000
46.0333	1074.0000
46.0538	1052.0000
46.0742	1078.0000
46.0947	1037.0000
46.1152	1023.0000
46.1357	1105.0000
46.1562	1082.0000
46.1766	1093.0000
46.1971	1087.0000
46.2176	1090.0000
46.2381	1102.0000
46.2585	1108.0000
46.2790	1174.0000
46.2995	1166.0000
46.3200	1151.0000
46.3404	1134.0000
46.3609	1193.0000
46.3814	1202.0000
46.4019	1181.0000
46.4223	1175.0000
46.4428	1206.0000
46.4633	1211.0000
46.4838	1243.0000
46.5042	1150.0000
46.5247	1248.0000
46.5452	1217.0000
46.5657	1240.0000
46.5861	1205.0000
46.6066	1325.0000
46.6271	1195.0000
46.6476	1319.0000
46.6680	1267.0000
46.6885	1200.0000
46.7090	1293.0000
46.7295	1239.0000
46.7499	1235.0000
46.7704	1311.0000
46.7909	1280.0000
46.8114	1248.0000
46.8318	1273.0000
46.8523	1292.0000
46.8728	1262.0000
46.8933	1299.0000
46.9137	1242.0000
46.9342	1262.0000
46.9547	1332.0000
46.9752	1299.0000
46.9957	1297.0000
47.0161	1341.0000
47.0366	1201.0000
47.0571	1267.0000
47.0776	1383.0000
47.0980	1259.0000
47.1185	1236.0000
47.1390	1304.0000
47.1595	1288.0000
47.1799	1337.0000
47.2004	1261.0000
47.2209	1266.0000
47.2414	1326.0000
47.2618	1364.0000
47.2823	1291.0000
47.3028	1288.0000
47.3233	1301.0000
47.3437	1311.0000
47.3642	1257.0000
47.3847	1323.0000
47.4052	1362.0000
47.4256	1308.0000
47.4461	1361.0000
47.4666	1234.0000
47.4871	1296.0000
47.5075	1328.0000
47.5280	1324.0000
47.5485	1243.0000
47.5690	1346.0000
47.5894	1275.0000
47.6099	1284.0000
47.6304	1317.0000
47.6509	1303.0000
47.6713	1326.0000
47.6918	1248.0000
47.7123	1227.0000
47.7328	1237.0000
47.7533	1235.0000
47.7737	1223.0000
47.7942	1184.0000
47.8147	1231.0000
47.8352	1228.0000
47.8556	1249.0000
47.8761	1265.0000
47.8966	1220.0000
47.9171	1224.0000
47.9375	1181.0000
47.9580	1196.0000
47.9785	1125.0000
47.9990	1100.0000
48.0194	1163.0000
48.0399	1191.0000
48.0604	1122.0000
48.0809	1079.0000
48.1013	1145.0000
48.1218	1156.0000
48.1423	1147.0000
48.1628	1116.0000
48.1832	1143.0000
48.2037	1073.0000
48.2242	1087.0000
48.2447	1053.0000
48.2651	1090.0000
48.2856	1069.0000
48.3061	1057.0000
48.3266	1045.0000
48.3470	994.0000
48.3675	1019.0000
48.3880	1068.0000
48.4085	1024.0000
48.4289	1007.0000
48.4494	1010.0000
48.4699	942.0000
48.4904	928.0000
48.5109	958.0000
48.5313	1008.0000
48.5518	876.0000
48.5723	911.0000
48.5928	909.0000
48.6132	975.0000
48.6337	968.0000
48.6542	924.0000
48.6747	906.0000
48.6951	894.0000
48.7156	859.0000
48.7361	915.0000
48.7566	905.0000
48.7770	801.0000
48.7975	928.0000
48.8180	832.0000
48.8385	856.0000
48.8589	826.0000
48.8794	829.0000
48.8999	833.0000
48.9204	857.0000
48.9408	824.0000
48.9613	788.0000
48.9818	797.0000
49.0023	817.0000
49.0227	808.0000
49.0432	791.0000
49.0637	806.0000
49.0842	817.0000
49.1046	740.0000
49.1251	777.0000
49.1456	732.0000
49.1661	755.0000
49.1865	768.0000
49.2070	768.0000
49.2275	762.0000
49.2480	741.0000
49.2684	770.0000
49.2889	742.0000
49.3094	683.0000
49.3299	722.0000
49.3504	749.0000
49.3708	748.0000
49.3913	691.0000
49.4118	692.0000
49.4323	712.0000
49.4527	698.0000
49.4732	758.0000
49.4937	726.0000
49.5142	688.0000
49.5346	664.0000
49.5551	672.0000
49.5756	693.0000
49.5961	707.0000
49.6165	676.0000
49.6370	674.0000
49.6575	722.0000
49.6780	683.0000
49.6984	689.0000
49.7189	656.0000
49.7394	625.0000
49.7599	652.0000
49.7803	655.0000
49.8008	656.0000
49.8213	676.0000
49.8418	643.0000
49.8622	742.0000
49.8827	624.0000
49.9032	665.0000
49.9237	627.0000
49.9441	692.0000
49.9646	613.0000
49.9851	647.0000
50.0056	649.0000
50.0260	659.0000
50.0465	656.0000
50.0670	614.0000
50.0875	663.0000
50.1080	640.0000
50.1284	608.0000
50.1489	638.0000
50.1694	610.0000
50.1899	618.0000
50.2103	620.0000
50.2308	588.0000
50.2513	592.0000
50.2718	644.0000
50.2922	608.0000
50.3127	647.0000
50.3332	637.0000
50.3537	584.0000
50.3741	592.0000
50.3946	577.0000
50.4151	594.0000
50.4356	622.0000
50.4560	607.0000
50.4765	632.0000
50.4970	613.0000
50.5175	577.0000
50.5379	637.0000
50.5584	563.0000
50.5789	591.0000
50.5994	558.0000
50.6198	610.0000
50.6403	594.0000
50.6608	547.0000
50.6813	574.0000
50.7017	589.0000
50.7222	582.0000
50.7427	606.0000
50.7632	618.0000
50.7836	610.0000
50.8041	591.0000
50.8246	560.0000
50.8451	568.0000
50.8655	560.0000
50.8860	586.0000
50.9065	550.0000
50.9270	553.0000
50.9475	577.0000
50.9679	538.0000
50.9884	530.0000
51.0089	585.0000
51.0294	540.0000
51.0498	547.0000
51.0703	570.0000
51.0908	591.0000
51.1113	548.0000
51.1317	543.0000
51.1522	534.0000
51.1727	569.0000
51.1932	519.0000
51.2136	571.0000
51.2341	539.0000
51.2546	566.0000
51.2751	549.0000
51.2955	590.0000
51.3160	605.0000
51.3365	572.0000
51.3570	570.0000
51.3774	581.0000
51.3979	586.0000
51.4184	524.0000
51.4389	557.0000
51.4593	578.0000
51.4798	570.0000
51.5003	522.0000
51.5208	527.0000
51.5412	548.0000
51.5617	572.0000
51.5822	569.0000
51.6027	599.0000
51.6231	531.0000
51.6436	544.0000
51.6641	544.0000
51.6846	557.0000
51.7051	530.0000
51.7255	553.0000
51.7460	543.0000
51.7665	551.0000
51.7870	543.0000
51.8074	570.0000
51.8279	598.0000
51.8484	555.0000
51.8689	572.0000
51.8893	582.0000
51.9098	544.0000
51.9303	536.0000
51.9508	561.0000
51.9712	567.0000
51.9917	549.0000
52.0122	502.0000
52.0327	552.0000
52.0531	498.0000
52.0736	543.0000
52.0941	578.0000
52.1146	510.0000
52.1350	511.0000
52.1555	540.0000
52.1760	531.0000
52.1965	548.0000
52.2169	516.0000
52.2374	560.0000
52.2579	555.0000
52.2784	563.0000
52.2988	524.0000
52.3193	529.0000
52.3398	490.0000
52.3603	554.0000
52.3807	519.0000
52.4012	505.0000
52.4217	542.0000
52.4422	523.0000
52.4626	564.0000
52.4831	512.0000
52.5036	555.0000
52.5241	496.0000
52.5446	544.0000
52.5650	548.0000
52.5855	500.0000
52.6060	520.0000
52.6265	534.0000
52.6469	527.0000
52.6674	546.0000
52.6879	491.0000
52.7084	565.0000
52.7288	515.0000
52.7493	541.0000
52.7698	591.0000
52.7903	528.0000
52.8107	565.0000
52.8312	539.0000
52.8517	535.0000
52.8722	512.0000
52.8926	493.0000
52.9131	499.0000
52.9336	549.0000
52.9541	533.0000
52.9745	542.0000
52.9950	495.0000
53.0155	531.0000
53.0360	496.0000
53.0564	513.0000
53.0769	543.0000
53.0974	535.0000
53.1179	509.0000
53.1383	520.0000
53.1588	480.0000
53.1793	522.0000
53.1998	526.0000
53.2202	567.0000
53.2407	492.0000
53.2612	543.0000
53.2817	554.0000
53.3022	547.0000
53.3226	528.0000
53.3431	492.0000
53.3636	513.0000
53.3841	568.0000
53.4045	558.0000
53.4250	506.0000
53.4455	552.0000
53.4660	584.0000
53.4864	503.0000
53.5069	568.0000
53.5274	510.0000
53.5479	558.0000
53.5683	516.0000
53.5888	503.0000
53.6093	512.0000
53.6298	588.0000
53.6502	514.0000
53.6707	503.0000
53.6912	521.0000
53.7117	493.0000
53.7321	541.0000
53.7526	541.0000
53.7731	518.0000
53.7936	522.0000
53.8140	518.0000
53.8345	501.0000
53.8550	506.0000
53.8755	487.0000
53.8959	546.0000
53.9164	485.0000
53.9369	548.0000
53.9574	539.0000
53.9778	491.0000
53.9983	513.0000
54.0188	549.0000
54.0393	551.0000
54.0598	531.0000
54.0802	529.0000
54.1007	507.0000
54.1212	517.0000
54.1417	523.0000
54.1621	518.0000
54.1826	465.0000
54.2031	489.0000
54.2236	523.0000
54.2440	519.0000
54.2645	495.0000
54.2850	479.0000
54.3055	457.0000
54.3259	534.0000
54.3464	529.0000
54.3669	497.0000
54.3874	488.0000
54.4078	517.0000
54.4283	511.0000
54.4488	502.0000
54.4693	520.0000
54.4897	488.0000
54.5102	513.0000
54.5307	512.0000
54.5512	515.0000
54.5716	544.0000
54.5921	485.0000
54.6126	517.0000
54.6331	498.0000
54.6535	532.0000
54.6740	511.0000
54.6945	546.0000
54.7150	545.0000
54.7354	499.0000
54.7559	496.0000
54.7764	510.0000
54.7969	485.0000
54.8173	526.0000
54.8378	494.0000
54.8583	517.0000
54.8788	512.0000
54.8993	509.0000
54.9197	492.0000
54.9402	527.0000
54.9607	527.0000
54.9812	545.0000
55.0016	520.0000
55.0221	534.0000
55.0426	520.0000
55.0631	499.0000
55.0835	506.0000
55.1040	546.0000
55.1245	515.0000
55.1450	491.0000
55.1654	496.0000
55.1859	472.0000
55.2064	500.0000
55.2269	550.0000
55.2473	503.0000
55.2678	538.0000
55.2883	515.0000
55.3088	500.0000
55.3292	490.0000
55.3497	469.0000
55.3702	517.0000
55.3907	523.0000
55.4111	546.0000
55.4316	528.0000
55.4521	514.0000
55.4726	511.0000
55.4930	546.0000
55.5135	516.0000
55.5340	500.0000
55.5545	501.0000
55.5749	506.0000
55.5954	500.0000
55.6159	541.0000
55.6364	495.0000
55.6569	492.0000
55.6773	546.0000
55.6978	487.0000
55.7183	562.0000
55.7388	516.0000
55.7592	482.0000
55.7797	467.0000
55.8002	484.0000
55.8207	518.0000
55.8411	505.0000
55.8616	499.0000
55.8821	451.0000
55.9026	482.0000
55.9230	493.0000
55.9435	499.0000
55.9640	514.0000
55.9845	490.0000
56.0049	511.0000
56.0254	480.0000
56.0459	517.0000
56.0664	485.0000
56.0868	516.0000
56.1073	485.0000
56.1278	522.0000
56.1483	522.0000
56.1687	536.0000
56.1892	483.0000
56.2097	477.0000
56.2302	505.0000
56.2506	466.0000
56.2711	496.0000
56.2916	511.0000
56.3121	468.0000
56.3325	533.0000
56.3530	494.0000
56.3735	520.0000
56.3940	502.0000
56.4144	510.0000
56.4349	498.0000
56.4554	503.0000
56.4759	506.0000
56.4964	503.0000
56.5168	533.0000
56.5373	497.0000
56.5578	492.0000
56.5783	500.0000
56.5987	502.0000
56.6192	505.0000
56.6397	477.0000
56.6602	468.0000
56.6806	432.0000
56.7011	483.0000
56.7216	502.0000
56.7421	491.0000
56.7625	474.0000
56.7830	499.0000
56.8035	468.0000
56.8240	493.0000
56.8444	471.0000
56.8649	485.0000
56.8854	472.0000
56.9059	495.0000
56.9263	498.0000
56.9468	500.0000
56.9673	490.0000
56.9878	509.0000
57.0082	509.0000
57.0287	507.0000
57.0492	495.0000
57.0697	481.0000
57.0901	511.0000
57.1106	483.0000
57.1311	481.0000
57.1516	497.0000
57.1720	484.0000
57.1925	512.0000
57.2130	530.0000
57.2335	519.0000
57.2540	487.0000
57.2744	465.0000
57.2949	510.0000
57.3154	496.0000
57.3359	461.0000
57.3563	500.0000
57.3768	493.0000
57.3973	520.0000
57.4178	469.0000
57.4382	511.0000
57.4587	502.0000
57.4792	541.0000
57.4997	521.0000
57.5201	481.0000
57.5406	508.0000
57.5611	484.0000
57.5816	461.0000
57.6020	512.0000
57.6225	511.0000
57.6430	481.0000
57.6635	534.0000
57.6839	464.0000
57.7044	492.0000
57.7249	456.0000
57.7454	494.0000
57.7658	486.0000
57.7863	496.0000
57.8068	515.0000
57.8273	529.0000
57.8477	526.0000
57.8682	502.0000
57.8887	529.0000
57.9092	468.0000
57.9296	472.0000
57.9501	501.0000
57.9706	469.0000
57.9911	464.0000
58.0116	491.0000
58.0320	486.0000
58.0525	458.0000
58.0730	470.0000
58.0935	449.0000
58.1139	521.0000
58.1344	512.0000
58.1549	482.0000
58.1754	462.0000
58.1958	519.0000
58.2163	483.0000
58.2368	492.0000
58.2573	477.0000
58.2777	495.0000
58.2982	513.0000
58.3187	492.0000
58.3392	440.0000
58.3596	434.0000
58.3801	495.0000
58.4006	526.0000
58.4211	494.0000
58.4415	518.0000
58.4620	488.0000
58.4825	479.0000
58.5030	492.0000
58.5234	490.0000
58.5439	454.0000
58.5644	499.0000
58.5849	457.0000
58.6053	487.0000
58.6258	488.0000
58.6463	472.0000
58.6668	481.0000
58.6872	471.0000
58.7077	474.0000
58.7282	483.0000
58.7487	487.0000
58.7691	498.0000
58.7896	502.0000
58.8101	503.0000
58.8306	501.0000
58.8511	490.0000
58.8715	481.0000
58.8920	510.0000
58.9125	501.0000
58.9330	512.0000
58.9534	492.0000
58.9739	524.0000
58.9944	507.0000
59.0149	476.0000
59.0353	516.0000
59.0558	468.0000
59.0763	531.0000
59.0968	516.0000
59.1172	488.0000
59.1377	461.0000
59.1582	489.0000
59.1787	461.0000
59.1991	537.0000
59.2196	484.0000
59.2401	540.0000
59.2606	505.0000
59.2810	495.0000
59.3015	493.0000
59.3220	463.0000
59.3425	463.0000
59.3629	484.0000
59.3834	481.0000
59.4039	489.0000
59.4244	492.0000
59.4448	467.0000
59.4653	479.0000
59.4858	499.0000
59.5063	508.0000
59.5267	483.0000
59.5472	469.0000
59.5677	463.0000
59.5882	513.0000
59.6087	510.0000
59.6291	543.0000
59.6496	536.0000
59.6701	485.0000
59.6906	495.0000
59.7110	483.0000
59.7315	493.0000
59.7520	474.0000
59.7725	490.0000
59.7929	478.0000
59.8134	488.0000
59.8339	463.0000
59.8544	499.0000
59.8748	517.0000
59.8953	477.0000
59.9158	504.0000
59.9363	474.0000
59.9567	474.0000
59.9772	499.0000
59.9977	464.0000
60.0182	468.0000
60.0386	468.0000
60.0591	459.0000
60.0796	520.0000
60.1001	474.0000
60.1205	503.0000
60.1410	478.0000
60.1615	512.0000
60.1820	494.0000
60.2024	483.0000
60.2229	498.0000
60.2434	450.0000
60.2639	478.0000
60.2843	473.0000
60.3048	445.0000
60.3253	483.0000
60.3458	475.0000
60.3662	460.0000
60.3867	500.0000
60.4072	452.0000
60.4277	517.0000
60.4482	504.0000
60.4686	504.0000
60.4891	539.0000
60.5096	517.0000
60.5301	471.0000
60.5505	472.0000
60.5710	495.0000
60.5915	476.0000
60.6120	422.0000
60.6324	456.0000
60.6529	475.0000
60.6734	461.0000
60.6939	475.0000
60.7143	435.0000
60.7348	494.0000
60.7553	528.0000
60.7758	500.0000
60.7962	480.0000
60.8167	480.0000
60.8372	513.0000
60.8577	486.0000
60.8781	493.0000
60.8986	505.0000
60.9191	489.0000
60.9396	485.0000
60.9600	496.0000
60.9805	461.0000
61.0010	481.0000
61.0215	469.0000
61.0419	457.0000
61.0624	464.0000
61.0829	439.0000
61.1034	506.0000
61.1238	486.0000
61.1443	496.0000
61.1648	446.0000
61.1853	464.0000
61.2058	466.0000
61.2262	448.0000
61.2467	446.0000
61.2672	537.0000
61.2877	502.0000
61.3081	459.0000
61.3286	497.0000
61.3491	490.0000
61.3696	499.0000
61.3900	510.0000
61.4105	456.0000
61.4310	498.0000
61.4515	470.0000
61.4719	506.0000
61.4924	492.0000
61.5129	494.0000
61.5334	468.0000
61.5538	454.0000
61.5743	502.0000
61.5948	509.0000
61.6153	479.0000
61.6357	458.0000
61.6562	441.0000
61.6767	448.0000
61.6972	474.0000
61.7176	517.0000
61.7381	495.0000
61.7586	500.0000
61.7791	479.0000
61.7995	481.0000
61.8200	519.0000
61.8405	454.0000
61.8610	491.0000
61.8814	508.0000
61.9019	439.0000
61.9224	455.0000
61.9429	463.0000
61.9634	502.0000
61.9838	508.0000
62.0043	485.0000
62.0248	469.0000
62.0453	458.0000
62.0657	452.0000
62.0862	528.0000
62.1067	460.0000
62.1272	482.0000
62.1476	505.0000
62.1681	463.0000
62.1886	436.0000
62.2091	493.0000
62.2295	480.0000
62.2500	442.0000
62.2705	464.0000
62.2910	473.0000
62.3114	461.0000
62.3319	513.0000
62.3524	506.0000
62.3729	485.0000
62.3933	482.0000
62.4138	451.0000
62.4343	488.0000
62.4548	500.0000
62.4752	496.0000
62.4957	481.0000
62.5162	497.0000
62.5367	471.0000
62.5571	517.0000
62.5776	457.0000
62.5981	516.0000
62.6186	436.0000
62.6390	478.0000
62.6595	482.0000
62.6800	467.0000
62.7005	483.0000
62.7209	462.0000
62.7414	514.0000
62.7619	463.0000
62.7824	493.0000
62.8029	461.0000
62.8233	459.0000
62.8438	470.0000
62.8643	447.0000
62.8848	524.0000
62.9052	465.0000
62.9257	467.0000
62.9462	450.0000
62.9667	471.0000
62.9871	467.0000
63.0076	482.0000
63.0281	452.0000
63.0486	474.0000
63.0690	463.0000
63.0895	468.0000
63.1100	501.0000
63.1305	510.0000
63.1509	489.0000
63.1714	485.0000
63.1919	450.0000
63.2124	526.0000
63.2328	472.0000
63.2533	466.0000
63.2738	479.0000
63.2943	466.0000
63.3147	470.0000
63.3352	470.0000
63.3557	499.0000
63.3762	470.0000
63.3966	496.0000
63.4171	487.0000
63.4376	467.0000
63.4581	485.0000
63.4785	466.0000
63.4990	446.0000
63.5195	488.0000
63.5400	455.0000
63.5605	496.0000
63.5809	506.0000
63.6014	490.0000
63.6219	459.0000
63.6424	498.0000
63.6628	478.0000
63.6833	487.0000
63.7038	444.0000
63.7243	463.0000
63.7447	462.0000
63.7652	502.0000
63.7857	439.0000
63.8062	524.0000
63.8266	464.0000
63.8471	469.0000
63.8676	477.0000
63.8881	492.0000
63.9085	489.0000
63.9290	477.0000
63.9495	490.0000
63.9700	478.0000
63.9904	453.0000
64.0109	500.0000
64.0314	493.0000
64.0519	452.0000
64.0723	462.0000
64.0928	431.0000
64.1133	485.0000
64.1338	504.0000
64.1542	487.0000
64.1747	465.0000
64.1952	452.0000
64.2157	454.0000
64.2361	459.0000
64.2566	484.0000
64.2771	521.0000
64.2976	502.0000
64.3180	523.0000
64.3385	485.0000
64.3590	476.0000
64.3795	486.0000
64.4000	511.0000
64.4204	426.0000
64.4409	491.0000
64.4614	478.0000
64.4819	466.0000
64.5023	489.0000
64.5228	470.0000
64.5433	468.0000
64.5638	489.0000
64.5842	503.0000
64.6047	466.0000
64.6252	491.0000
64.6457	528.0000
64.6661	488.0000
64.6866	471.0000
64.7071	498.0000
64.7276	483.0000
64.7480	488.0000
64.7685	490.0000
64.7890	500.0000
64.8095	515.0000
64.8299	506.0000
64.8504	522.0000
64.8709	468.0000
64.8914	519.0000
64.9118	434.0000
64.9323	486.0000
64.9528	474.0000
64.9733	481.0000
64.9937	479.0000
65.0142	515.0000
65.0347	469.0000
65.0552	494.0000
65.0756	490.0000
65.0961	509.0000
65.1166	480.0000
65.1371	531.0000
65.1576	491.0000
65.1780	559.0000
65.1985	495.0000
65.2190	495.0000
65.2395	502.0000
65.2599	490.0000
65.2804	489.0000
65.3009	493.0000
65.3214	515.0000
65.3418	499.0000
65.3623	503.0000
65.3828	466.0000
65.4033	472.0000
65.4237	526.0000
65.4442	523.0000
65.4647	527.0000
65.4852	507.0000
65.5056	509.0000
65.5261	532.0000
65.5466	501.0000
65.5671	524.0000
65.5875	522.0000
65.6080	538.0000
65.6285	508.0000
65.6490	467.0000
65.6694	512.0000
65.6899	501.0000
65.7104	522.0000
65.7309	521.0000
65.7513	499.0000
65.7718	552.0000
65.7923	514.0000
65.8128	500.0000
65.8332	485.0000
65.8537	500.0000
65.8742	546.0000
65.8947	541.0000
65.9152	532.0000
65.9356	521.0000
65.9561	535.0000
65.9766	522.0000
65.9971	588.0000
66.0175	526.0000
66.0380	496.0000
66.0585	523.0000
66.0790	559.0000
66.0994	490.0000
66.1199	547.0000
66.1404	510.0000
66.1609	552.0000
66.1813	555.0000
66.2018	538.0000
66.2223	542.0000
66.2428	531.0000
66.2632	563.0000
66.2837	530.0000
66.3042	507.0000
66.3247	555.0000
66.3451	521.0000
66.3656	552.0000
66.3861	567.0000
66.4066	583.0000
66.4270	546.0000
66.4475	537.0000
66.4680	567.0000
66.4885	525.0000
66.5089	537.0000
66.5294	564.0000
66.5499	602.0000
66.5704	562.0000
66.5908	566.0000
66.6113	534.0000
66.6318	578.0000
66.6523	569.0000
66.6727	567.0000
66.6932	602.0000
66.7137	588.0000
66.7342	574.0000
66.7547	593.0000
66.7751	591.0000
66.7956	586.0000
66.8161	555.0000
66.8366	615.0000
66.8570	596.0000
66.8775	597.0000
66.8980	580.0000
66.9185	531.0000
66.9389	579.0000
66.9594	545.0000
66.9799	624.0000
67.0004	614.0000
67.0208	578.0000
67.0413	620.0000
67.0618	576.0000
67.0823	610.0000
67.1027	606.0000
67.1232	622.0000
67.1437	625.0000
67.1642	617.0000
67.1846	600.0000
67.2051	644.0000
67.2256	612.0000
67.2461	650.0000
67.2665	669.0000
67.2870	614.0000
67.3075	619.0000
67.3280	672.0000
67.3484	646.0000
67.3689	666.0000
67.3894	626.0000
67.4099	579.0000
67.4303	663.0000
67.4508	643.0000
67.4713	636.0000
67.4918	655.0000
67.5123	669.0000
67.5327	702.0000
67.5532	653.0000
67.5737	669.0000
67.5942	671.0000
67.6146	657.0000
67.6351	646.0000
67.6556	649.0000
67.6761	668.0000
67.6965	630.0000
67.7170	669.0000
67.7375	658.0000
67.7580	690.0000
67.7784	636.0000
67.7989	669.0000
67.8194	689.0000
67.8399	692.0000
67.8603	677.0000
67.8808	720.0000
67.9013	691.0000
67.9218	726.0000
67.9422	733.0000
67.9627	663.0000
67.9832	714.0000
68.0037	667.0000
68.0241	769.0000
68.0446	705.0000
68.0651	721.0000
68.0856	711.0000
68.1060	719.0000
68.1265	755.0000
68.1470	731.0000
68.1675	725.0000
68.1879	740.0000
68.2084	785.0000
68.2289	726.0000
68.2494	742.0000
68.2698	717.0000
68.2903	732.0000
68.3108	715.0000
68.3313	716.0000
68.3518	698.0000
68.3722	710.0000
68.3927	714.0000
68.4132	682.0000
68.4337	781.0000
68.4541	721.0000
68.4746	757.0000
68.4951	734.0000
68.5156	714.0000
68.5360	747.0000
68.5565	760.0000
68.5770	775.0000
68.5975	716.0000
68.6179	744.0000
68.6384	787.0000
68.6589	748.0000
68.6794	751.0000
68.6998	766.0000
68.7203	734.0000
68.7408	762.0000
68.7613	780.0000
68.7817	752.0000
68.8022	742.0000
68.8227	762.0000
68.8432	757.0000
68.8636	734.0000
68.8841	730.0000
68.9046	776.0000
68.9251	734.0000
68.9455	780.0000
68.9660	745.0000
68.9865	736.0000
69.0070	733.0000
69.0274	764.0000
69.0479	679.0000
69.0684	721.0000
69.0889	723.0000
69.1094	725.0000
69.1298	769.0000
69.1503	709.0000
69.1708	756.0000
69.1913	737.0000
69.2117	716.0000
69.2322	726.0000
69.2527	777.0000
69.2732	757.0000
69.2936	760.0000
69.3141	750.0000
69.3346	738.0000
69.3551	744.0000
69.3755	743.0000
69.3960	694.0000
69.4165	667.0000
69.4370	757.0000
69.4574	758.0000
69.4779	733.0000
69.4984	752.0000
69.5189	752.0000
69.5393	734.0000
69.5598	775.0000
69.5803	743.0000
69.6008	648.0000
69.6212	738.0000
69.6417	681.0000
69.6622	743.0000
69.6827	682.0000
69.7031	697.0000
69.7236	683.0000
69.7441	742.0000
69.7646	676.0000
69.7850	707.0000
69.8055	684.0000
69.8260	689.0000
69.8465	760.0000
69.8670	682.0000
69.8874	672.0000
69.9079	696.0000
69.9284	718.0000
69.9489	677.0000
69.9693	720.0000
69.9898	660.0000
70.0103	686.0000
70.0308	690.0000
70.0512	667.0000
70.0717	662.0000
70.0922	659.0000
70.1127	647.0000
70.1331	720.0000
70.1536	650.0000
70.1741	687.0000
70.1946	695.0000
70.2150	690.0000
70.2355	669.0000
70.2560	667.0000
70.2765	663.0000
70.2969	675.0000
70.3174	677.0000
70.3379	674.0000
70.3584	598.0000
70.3788	660.0000
70.3993	655.0000
70.4198	652.0000
70.4403	640.0000
70.4607	645.0000
70.4812	638.0000
70.5017	629.0000
70.5222	634.0000
70.5426	621.0000
70.5631	663.0000
70.5836	628.0000
70.6041	631.0000
70.6245	629.0000
70.6450	639.0000
70.6655	650.0000
70.6860	633.0000
70.7065	629.0000
70.7269	653.0000
70.7474	616.0000
70.7679	617.0000
70.7884	595.0000
70.8088	595.0000
70.8293	638.0000
70.8498	611.0000
70.8703	580.0000
70.8907	580.0000
70.9112	607.0000
70.9317	565.0000
70.9522	621.0000
70.9726	582.0000
70.9931	557.0000
71.0136	571.0000
71.0341	536.0000
71.0545	576.0000
71.0750	578.0000
71.0955	584.0000
71.1160	557.0000
71.1364	579.0000
71.1569	560.0000
71.1774	610.0000
71.1979	606.0000
71.2183	578.0000
71.2388	587.0000
71.2593	540.0000
71.2798	588.0000
71.3002	589.0000
71.3207	585.0000
71.3412	553.0000
71.3617	536.0000
71.3821	539.0000
71.4026	567.0000
71.4231	502.0000
71.4436	515.0000
71.4641	536.0000
71.4845	523.0000
71.5050	491.0000
71.5255	533.0000
71.5460	563.0000
71.5664	534.0000
71.5869	536.0000
71.6074	542.0000
71.6279	548.0000
71.6483	524.0000
71.6688	504.0000
71.6893	558.0000
71.7098	559.0000
71.7302	482.0000
71.7507	509.0000
71.7712	523.0000
71.7917	507.0000
71.8121	554.0000
71.8326	480.0000
71.8531	495.0000
71.8736	525.0000
71.8940	502.0000
71.9145	518.0000
71.9350	500.0000
71.9555	505.0000
71.9759	519.0000
71.9964	502.0000
72.0169	518.0000
72.0374	471.0000
72.0578	480.0000
72.0783	538.0000
72.0988	486.0000
72.1193	497.0000
72.1397	486.0000
72.1602	506.0000
72.1807	476.0000
72.2012	505.0000
72.2216	496.0000
72.2421	482.0000
72.2626	452.0000
72.2831	457.0000
72.3036	487.0000
72.3240	499.0000
72.3445	461.0000
72.3650	468.0000
72.3855	476.0000
72.4059	485.0000
72.4264	457.0000
72.4469	491.0000
72.4674	449.0000
72.4878	504.0000
72.5083	477.0000
72.5288	454.0000
72.5493	473.0000
72.5697	437.0000
72.5902	484.0000
72.6107	476.0000
72.6312	470.0000
72.6516	502.0000
72.6721	495.0000
72.6926	462.0000
72.7131	512.0000
72.7335	437.0000
72.7540	480.0000
72.7745	443.0000
72.7950	509.0000
72.8154	483.0000
72.8359	472.0000
72.8564	488.0000
72.8769	461.0000
72.8973	462.0000
72.9178	459.0000
72.9383	446.0000
72.9588	454.0000
72.9792	471.0000
72.9997	465.0000
73.0202	508.0000
73.0407	465.0000
73.0612	480.0000
73.0816	461.0000
73.1021	472.0000
73.1226	436.0000
73.1431	493.0000
73.1635	461.0000
73.1840	460.0000
73.2045	483.0000
73.2250	423.0000
73.2454	447.0000
73.2659	473.0000
73.2864	457.0000
73.3069	437.0000
73.3273	482.0000
73.3478	441.0000
73.3683	472.0000
73.3888	437.0000
73.4092	414.0000
73.4297	449.0000
73.4502	442.0000
73.4707	474.0000
73.4911	391.0000
73.5116	431.0000
73.5321	430.0000
73.5526	447.0000
73.5730	439.0000
73.5935	390.0000
73.6140	465.0000
73.6345	446.0000
73.6549	450.0000
73.6754	382.0000
73.6959	447.0000
73.7164	418.0000
73.7368	426.0000
73.7573	443.0000
73.7778	447.0000
73.7983	468.0000
73.8187	437.0000
73.8392	451.0000
73.8597	454.0000
73.8802	460.0000
73.9007	445.0000
73.9211	437.0000
73.9416	415.0000
73.9621	413.0000
73.9826	463.0000
74.0030	443.0000
74.0235	452.0000
74.0440	437.0000
74.0645	498.0000
74.0849	452.0000
74.1054	473.0000
74.1259	451.0000
74.1464	456.0000
74.1668	410.0000
74.1873	435.0000
74.2078	454.0000
74.2283	434.0000
74.2487	447.0000
74.2692	427.0000
74.2897	403.0000
74.3102	423.0000
74.3306	441.0000
74.3511	421.0000
74.3716	458.0000
74.3921	439.0000
74.4125	456.0000
74.4330	485.0000
74.4535	419.0000
74.4740	407.0000
74.4944	406.0000
74.5149	438.0000
74.5354	388.0000
74.5559	442.0000
74.5763	429.0000
74.5968	437.0000
74.6173	411.0000
74.6378	464.0000
74.6583	438.0000
74.6787	436.0000
74.6992	429.0000
74.7197	416.0000
74.7402	405.0000
74.7606	447.0000
74.7811	427.0000
74.8016	432.0000
74.8221	452.0000
74.8425	452.0000
74.8630	427.0000
74.8835	435.0000
74.9040	440.0000
74.9244	412.0000
74.9449	418.0000
74.9654	435.0000
74.9859	431.0000
75.0063	406.0000
75.0268	399.0000
75.0473	418.0000
75.0678	456.0000
75.0882	419.0000
75.1087	423.0000
75.1292	410.0000
75.1497	394.0000
75.1701	429.0000
75.1906	447.0000
75.2111	451.0000
75.2316	410.0000
75.2520	425.0000
75.2725	423.0000
75.2930	403.0000
75.3135	481.0000
75.3339	433.0000
75.3544	440.0000
75.3749	455.0000
75.3954	401.0000
75.4159	398.0000
75.4363	409.0000
75.4568	417.0000
75.4773	421.0000
75.4978	407.0000
75.5182	375.0000
75.5387	419.0000
75.5592	428.0000
75.5797	432.0000
75.6001	408.0000
75.6206	440.0000
75.6411	410.0000
75.6616	443.0000
75.6820	443.0000
75.7025	453.0000
75.7230	436.0000
75.7435	432.0000
75.7639	453.0000
75.7844	452.0000
75.8049	393.0000
75.8254	453.0000
75.8458	478.0000
75.8663	421.0000
75.8868	450.0000
75.9073	408.0000
75.9277	428.0000
75.9482	424.0000
75.9687	432.0000
75.9892	429.0000
76.0096	470.0000
76.0301	433.0000
76.0506	435.0000
76.0711	424.0000
76.0915	394.0000
76.1120	384.0000
76.1325	428.0000
76.1530	453.0000
76.1734	435.0000
76.1939	427.0000
76.2144	419.0000
76.2349	428.0000
76.2554	429.0000
76.2758	400.0000
76.2963	418.0000
76.3168	457.0000
76.3373	402.0000
76.3577	437.0000
76.3782	435.0000
76.3987	401.0000
76.4192	429.0000
76.4396	419.0000
76.4601	435.0000
76.4806	428.0000
76.5011	412.0000
76.5215	425.0000
76.5420	414.0000
76.5625	450.0000
76.5830	395.0000
76.6034	433.0000
76.6239	405.0000
76.6444	418.0000
76.6649	443.0000
76.6853	466.0000
76.7058	453.0000
76.7263	406.0000
76.7468	432.0000
76.7672	438.0000
76.7877	425.0000
76.8082	412.0000
76.8287	465.0000
76.8491	407.0000
76.8696	468.0000
76.8901	437.0000
76.9106	433.0000
76.9310	454.0000
76.9515	424.0000
76.9720	454.0000
76.9925	419.0000
77.0130	432.0000
77.0334	430.0000
77.0539	442.0000
77.0744	422.0000
77.0949	473.0000
77.1153	417.0000
77.1358	393.0000
77.1563	431.0000
77.1768	416.0000
77.1972	451.0000
77.2177	445.0000
77.2382	433.0000
77.2587	425.0000
77.2791	441.0000
77.2996	393.0000
77.3201	442.0000
77.3406	450.0000
77.3610	433.0000
77.3815	458.0000
77.4020	443.0000
77.4225	476.0000
77.4429	412.0000
77.4634	425.0000
77.4839	461.0000
77.5044	445.0000
77.5248	462.0000
77.5453	423.0000
77.5658	433.0000
77.5863	445.0000
77.6067	418.0000
77.6272	455.0000
77.6477	424.0000
77.6682	437.0000
77.6886	446.0000
77.7091	463.0000
77.7296	420.0000
77.7501	481.0000
77.7705	434.0000
77.7910	417.0000
77.8115	408.0000
77.8320	466.0000
77.8525	422.0000
77.8729	414.0000
77.8934	432.0000
77.9139	408.0000
77.9344	440.0000
77.9548	455.0000
77.9753	464.0000
77.9958	470.0000
78.0163	426.0000
78.0367	471.0000
78.0572	454.0000
78.0777	409.0000
78.0982	470.0000
78.1186	437.0000
78.1391	503.0000
78.1596	433.0000
78.1801	401.0000
78.2005	434.0000
78.2210	488.0000
78.2415	444.0000
78.2620	451.0000
78.2824	451.0000
78.3029	454.0000
78.3234	438.0000
78.3439	409.0000
78.3643	432.0000
78.3848	419.0000
78.4053	449.0000
78.4258	429.0000
78.4462	432.0000
78.4667	412.0000
78.4872	460.0000
78.5077	446.0000
78.5281	456.0000
78.5486	424.0000
78.5691	450.0000
78.5896	476.0000
78.6101	436.0000
78.6305	448.0000
78.6510	451.0000
78.6715	447.0000
78.6920	447.0000
78.7124	435.0000
78.7329	433.0000
78.7534	445.0000
78.7739	430.0000
78.7943	459.0000
78.8148	469.0000
78.8353	440.0000
78.8558	463.0000
78.8762	469.0000
78.8967	446.0000
78.9172	473.0000
78.9377	459.0000
78.9581	438.0000
78.9786	458.0000
78.9991	499.0000
79.0196	440.0000
79.0400	489.0000
79.0605	475.0000
79.0810	454.0000
79.1015	418.0000
79.1219	452.0000
79.1424	442.0000
79.1629	488.0000
79.1834	481.0000
79.2038	448.0000
79.2243	506.0000
79.2448	464.0000
79.2653	463.0000
79.2857	485.0000
79.3062	491.0000
79.3267	463.0000
79.3472	485.0000
79.3677	440.0000
79.3881	412.0000
79.4086	497.0000
79.4291	475.0000
79.4496	456.0000
79.4700	469.0000
79.4905	431.0000
79.5110	507.0000
79.5315	476.0000
79.5519	482.0000
79.5724	432.0000
79.5929	470.0000
79.6134	486.0000
79.6338	505.0000
79.6543	475.0000
79.6748	499.0000
79.6953	463.0000
79.7157	473.0000
79.7362	482.0000
79.7567	487.0000
79.7772	487.0000
79.7976	475.0000
79.8181	483.0000
79.8386	470.0000
79.8591	461.0000
79.8795	473.0000
79.9000	491.0000
79.9205	521.0000
79.9410	496.0000
79.9614	473.0000
79.9819	490.0000
80.0024	536.0000
80.0229	451.0000
80.0433	498.0000
80.0638	518.0000
80.0843	467.0000
80.1048	454.0000
80.1252	486.0000
80.1457	477.0000
80.1662	512.0000
80.1867	472.0000
80.2072	522.0000
80.2276	516.0000
80.2481	479.0000
80.2686	531.0000
80.2891	527.0000
80.3095	526.0000
80.3300	487.0000
80.3505	493.0000
80.3710	541.0000
80.3914	530.0000
80.4119	510.0000
80.4324	497.0000
80.4529	572.0000
80.4733	499.0000
80.4938	546.0000
80.5143	505.0000
80.5348	543.0000
80.5552	514.0000
80.5757	555.0000
80.5962	516.0000
80.6167	527.0000
80.6371	501.0000
80.6576	549.0000
80.6781	534.0000
80.6986	508.0000
80.7190	556.0000
80.7395	539.0000
80.7600	524.0000
80.7805	548.0000
80.8009	558.0000
80.8214	554.0000
80.8419	570.0000
80.8624	473.0000
80.8828	529.0000
80.9033	555.0000
80.9238	517.0000
80.9443	560.0000
80.9648	535.0000
80.9852	545.0000
81.0057	577.0000
81.0262	559.0000
81.0467	543.0000
81.0671	598.0000
81.0876	509.0000
81.1081	525.0000
81.1286	551.0000
81.1490	580.0000
81.1695	556.0000
81.1900	576.0000
81.2105	545.0000
81.2309	554.0000
81.2514	558.0000
81.2719	563.0000
81.2924	587.0000
81.3128	564.0000
81.3333	603.0000
81.3538	571.0000
81.3743	608.0000
81.3947	541.0000
81.4152	562.0000
81.4357	598.0000
81.4562	569.0000
81.4766	584.0000
81.4971	590.0000
81.5176	577.0000
81.5381	623.0000
81.5585	603.0000
81.5790	635.0000
81.5995	598.0000
81.6200	618.0000
81.6404	633.0000
81.6609	602.0000
81.6814	658.0000
81.7019	635.0000
81.7223	588.0000
81.7428	607.0000
81.7633	613.0000
81.7838	624.0000
81.8043	652.0000
81.8247	616.0000
81.8452	679.0000
81.8657	583.0000
81.8862	597.0000
81.9066	606.0000
81.9271	610.0000
81.9476	628.0000
81.9681	599.0000
81.9885	650.0000
82.0090	649.0000
82.0295	614.0000
82.0500	659.0000
82.0704	624.0000
82.0909	628.0000
82.1114	637.0000
82.1319	668.0000
82.1523	581.0000
82.1728	639.0000
82.1933	638.0000
82.2138	647.0000
82.2342	628.0000
82.2547	621.0000
82.2752	633.0000
82.2957	696.0000
82.3161	609.0000
82.3366	590.0000
82.3571	614.0000
82.3776	649.0000
82.3980	665.0000
82.4185	662.0000
82.4390	668.0000
82.4595	634.0000
82.4799	633.0000
82.5004	672.0000
82.5209	654.0000
82.5414	639.0000
82.5619	682.0000
82.5823	670.0000
82.6028	647.0000
82.6233	648.0000
82.6438	642.0000
82.6642	699.0000
82.6847	619.0000
82.7052	650.0000
82.7257	638.0000
82.7461	681.0000
82.7666	657.0000
82.7871	616.0000
82.8076	686.0000
82.8280	636.0000
82.8485	650.0000
82.8690	603.0000
82.8895	667.0000
82.9099	624.0000
82.9304	681.0000
82.9509	675.0000
82.9714	662.0000
82.9918	651.0000
83.0123	641.0000
83.0328	646.0000
83.0533	657.0000
83.0737	679.0000
83.0942	706.0000
83.1147	674.0000
83.1352	655.0000
83.1556	661.0000
83.1761	619.0000
83.1966	615.0000
83.2171	629.0000
83.2375	625.0000
83.2580	646.0000
83.2785	619.0000
83.2990	627.0000
83.3195	624.0000
83.3399	656.0000
83.3604	632.0000
83.3809	630.0000
83.4014	663.0000
83.4218	609.0000
83.4423	624.0000
83.4628	620.0000
83.4833	684.0000
83.5037	679.0000
83.5242	653.0000
83.5447	656.0000
83.5652	627.0000
83.5856	638.0000
83.6061	654.0000
83.6266	620.0000
83.6471	647.0000
83.6675	637.0000
83.6880	655.0000
83.7085	643.0000
83.7290	611.0000
83.7494	581.0000
83.7699	606.0000
83.7904	620.0000
83.8109	612.0000
83.8313	680.0000
83.8518	618.0000
83.8723	674.0000
83.8928	621.0000
83.9132	668.0000
83.9337	607.0000
83.9542	607.0000
83.9747	627.0000
83.9951	670.0000
84.0156	600.0000
84.0361	633.0000
84.0566	596.0000
84.0770	602.0000
84.0975	592.0000
84.1180	599.0000
84.1385	629.0000
84.1590	630.0000
84.1794	651.0000
84.1999	641.0000
84.2204	599.0000
84.2409	609.0000
84.2613	620.0000
84.2818	644.0000
84.3023	574.0000
84.3228	629.0000
84.3432	638.0000
84.3637	631.0000
84.3842	590.0000
84.4047	566.0000
84.4251	650.0000
84.4456	604.0000
84.4661	582.0000
84.4866	607.0000
84.5070	595.0000
84.5275	606.0000
84.5480	553.0000
84.5685	621.0000
84.5889	619.0000
84.6094	583.0000
84.6299	565.0000
84.6504	575.0000
84.6708	584.0000
84.6913	575.0000
84.7118	583.0000
84.7323	546.0000
84.7527	550.0000
84.7732	566.0000
84.7937	604.0000
84.8142	586.0000
84.8346	553.0000
84.8551	583.0000
84.8756	574.0000
84.8961	554.0000
84.9166	572.0000
84.9370	558.0000
84.9575	543.0000
84.9780	527.0000
84.9985	505.0000
85.0189	556.0000
85.0394	563.0000
85.0599	570.0000
85.0804	593.0000
85.1008	581.0000
85.1213	549.0000
85.1418	571.0000
85.1623	549.0000
85.1827	590.0000
85.2032	520.0000
85.2237	597.0000
85.2442	598.0000
85.2646	569.0000
85.2851	522.0000
85.3056	585.0000
85.3261	573.0000
85.3465	539.0000
85.3670	565.0000
85.3875	551.0000
85.4080	569.0000
85.4284	589.0000
85.4489	517.0000
85.4694	535.0000
85.4899	541.0000
85.5103	526.0000
85.5308	528.0000
85.5513	546.0000
85.5718	572.0000
85.5922	598.0000
85.6127	515.0000
85.6332	529.0000
85.6537	529.0000
85.6741	522.0000
85.6946	555.0000
85.7151	550.0000
85.7356	521.0000
85.7561	521.0000
85.7765	572.0000
85.7970	541.0000
85.8175	542.0000
85.8380	527.0000
85.8584	515.0000
85.8789	551.0000
85.8994	523.0000
85.9199	505.0000
85.9403	503.0000
85.9608	503.0000
85.9813	488.0000
86.0018	538.0000
86.0222	533.0000
86.0427	531.0000
86.0632	455.0000
86.0837	485.0000
86.1041	523.0000
86.1246	478.0000
86.1451	507.0000
86.1656	529.0000
86.1860	518.0000
86.2065	506.0000
86.2270	503.0000
86.2475	548.0000
86.2679	533.0000
86.2884	498.0000
86.3089	522.0000
86.3294	540.0000
86.3498	513.0000
86.3703	458.0000
86.3908	513.0000
86.4113	501.0000
86.4317	520.0000
86.4522	490.0000
86.4727	503.0000
86.4932	502.0000
86.5137	497.0000
86.5341	519.0000
86.5546	528.0000
86.5751	523.0000
86.5956	458.0000
86.6160	484.0000
86.6365	505.0000
86.6570	511.0000
86.6775	482.0000
86.6979	456.0000
86.7184	492.0000
86.7389	495.0000
86.7594	461.0000
86.7798	483.0000
86.8003	459.0000
86.8208	461.0000
86.8413	465.0000
86.8617	453.0000
86.8822	471.0000
86.9027	482.0000
86.9232	509.0000
86.9436	442.0000
86.9641	471.0000
86.9846	487.0000
87.0051	458.0000
87.0255	488.0000
87.0460	507.0000
87.0665	448.0000
87.0870	502.0000
87.1074	515.0000
87.1279	499.0000
87.1484	463.0000
87.1689	422.0000
87.1893	467.0000
87.2098	478.0000
87.2303	491.0000
87.2508	443.0000
87.2713	473.0000
87.2917	463.0000
87.3122	505.0000
87.3327	468.0000
87.3532	418.0000
87.3736	472.0000
87.3941	442.0000
87.4146	457.0000
87.4351	463.0000
87.4555	454.0000
87.4760	436.0000
87.4965	470.0000
87.5170	473.0000
87.5374	417.0000
87.5579	472.0000
87.5784	453.0000
87.5989	479.0000
87.6193	447.0000
87.6398	449.0000
87.6603	440.0000
87.6808	431.0000
87.7012	468.0000
87.7217	508.0000
87.7422	450.0000
87.7627	463.0000
87.7831	447.0000
87.8036	441.0000
87.8241	445.0000
87.8446	473.0000
87.8650	483.0000
87.8855	426.0000
87.9060	427.0000
87.9265	429.0000
87.9469	454.0000
87.9674	437.0000
87.9879	437.0000
88.0084	436.0000
88.0288	417.0000
88.0493	465.0000
88.0698	420.0000
88.0903	409.0000
88.1108	443.0000
88.1312	436.0000
88.1517	432.0000
88.1722	411.0000
88.1927	438.0000
88.2131	423.0000
88.2336	451.0000
88.2541	407.0000
88.2746	405.0000
88.2950	431.0000
88.3155	446.0000
88.3360	445.0000
88.3565	429.0000
88.3769	455.0000
88.3974	410.0000
88.4179	386.0000
88.4384	434.0000
88.4588	408.0000
88.4793	444.0000
88.4998	449.0000
88.5203	428.0000
88.5407	421.0000
88.5612	415.0000
88.5817	448.0000
88.6022	409.0000
88.6226	433.0000
88.6431	438.0000
88.6636	372.0000
88.6841	432.0000
88.7045	401.0000
88.7250	397.0000
88.7455	455.0000
88.7660	445.0000
88.7864	416.0000
88.8069	435.0000
88.8274	428.0000
88.8479	408.0000
88.8684	407.0000
88.8888	424.0000
88.9093	406.0000
88.9298	437.0000
88.9503	395.0000
88.9707	416.0000
88.9912	422.0000
89.0117	419.0000
89.0322	424.0000
89.0526	424.0000
89.0731	380.0000
89.0936	417.0000
89.1141	369.0000
89.1345	423.0000
89.1550	375.0000
89.1755	387.0000
89.1960	386.0000
89.2164	388.0000
89.2369	413.0000
89.2574	407.0000
89.2779	381.0000
89.2983	411.0000
89.3188	410.0000
89.3393	430.0000
89.3598	384.0000
89.3802	414.0000
89.4007	407.0000
89.4212	404.0000
89.4417	383.0000
89.4621	394.0000
89.4826	411.0000
89.5031	423.0000
89.5236	372.0000
89.5440	412.0000
89.5645	410.0000
89.5850	362.0000
89.6055	400.0000
89.6259	377.0000
89.6464	388.0000
89.6669	373.0000
89.6874	365.0000
89.7079	368.0000
89.7283	368.0000
89.7488	390.0000
89.7693	395.0000
89.7898	390.0000
89.8102	371.0000
89.8307	382.0000
89.8512	407.0000
89.8717	370.0000
89.8921	378.0000
89.9126	406.0000
89.9331	371.0000
89.9536	370.0000
89.9740	374.0000
89.9945	404.0000
90.0150	366.0000
