5.0000	10158.0000
5.0205	10174.0000
5.0410	9942.0000
5.0614	9923.0000
5.0819	10052.0000
5.1024	9853.0000
5.1229	9779.0000
5.1433	9603.0000
5.1638	9561.0000
5.1843	9498.0000
5.2048	9562.0000
5.2252	9393.0000
5.2457	9306.0000
5.2662	9368.0000
5.2867	9336.0000
5.3071	9311.0000
5.3276	9211.0000
5.3481	9197.0000
5.3686	9028.0000
5.3890	9006.0000
5.4095	9046.0000
5.4300	9028.0000
5.4505	8935.0000
5.4709	8844.0000
5.4914	8823.0000
5.5119	8690.0000
5.5324	8682.0000
5.5528	8517.0000
5.5733	8513.0000
5.5938	8357.0000
5.6143	8375.0000
5.6347	8343.0000
5.6552	8206.0000
5.6757	8211.0000
5.6962	8186.0000
5.7166	8067.0000
5.7371	8086.0000
5.7576	7994.0000
5.7781	7918.0000
5.7986	7860.0000
5.8190	7763.0000
5.8395	7782.0000
5.8600	7835.0000
5.8805	7701.0000
5.9009	7628.0000
5.9214	7577.0000
5.9419	7504.0000
5.9624	7346.0000
5.9828	7370.0000
6.0033	7378.0000
6.0238	7299.0000
6.0443	7178.0000
6.0647	7091.0000
6.0852	7226.0000
6.1057	7192.0000
6.1262	7065.0000
6.1466	6913.0000
6.1671	6952.0000
6.1876	6845.0000
6.2081	6936.0000
6.2285	6809.0000
6.2490	6776.0000
6.2695	6633.0000
6.2900	6588.0000
6.3104	6537.0000
6.3309	6626.0000
6.3514	6340.0000
6.3719	6396.0000
6.3923	6289.0000
6.4128	6259.0000
6.4333	6223.0000
6.4538	6369.0000
6.4742	6180.0000
6.4947	6048.0000
6.5152	5932.0000
6.5357	6114.0000
6.5561	5997.0000
6.5766	5866.0000
6.5971	5939.0000
6.6176	5748.0000
6.6381	5918.0000
6.6585	5674.0000
6.6790	5692.0000
6.6995	5725.0000
6.7200	5619.0000
6.7404	5459.0000
6.7609	5607.0000
6.7814	5524.0000
6.8019	5543.0000
6.8223	5229.0000
6.8428	5263.0000
6.8633	5265.0000
6.8838	5272.0000
6.9042	5174.0000
6.9247	5231.0000
6.9452	5281.0000
6.9657	5171.0000
6.9861	4976.0000
7.0066	4886.0000
7.0271	5040.0000
7.0476	5073.0000
7.0680	4958.0000
7.0885	4789.0000
7.1090	4809.0000
7.1295	4866.0000
7.1499	4739.0000
7.1704	4772.0000
7.1909	4714.0000
7.2114	4672.0000
7.2318	4587.0000
7.2523	4535.0000
7.2728	4558.0000
7.2933	4563.0000
7.3137	4541.0000
7.3342	4383.0000
7.3547	4365.0000
7.3752	4362.0000
7.3957	4366.0000
7.4161	4409.0000
7.4366	4320.0000
7.4571	4274.0000
7.4776	4092.0000
7.4980	4181.0000
7.5185	4092.0000
7.5390	4150.0000
7.5595	4161.0000
7.5799	4127.0000
7.6004	3988.0000
7.6209	3904.0000
7.6414	3909.0000
7.6618	3920.0000
7.6823	3808.0000
7.7028	3977.0000
7.7233	3914.0000
7.7437	3745.0000
7.7642	3824.0000
7.7847	3644.0000
7.8052	3668.0000
7.8256	3725.0000
7.8461	3595.0000
7.8666	3669.0000
7.8871	3673.0000
7.9075	3576.0000
7.9280	3518.0000
7.9485	3572.0000
7.9690	3515.0000
7.9894	3539.0000
8.0099	3404.0000
8.0304	3437.0000
8.0509	3464.0000
8.0713	3388.0000
8.0918	3386.0000
8.1123	3353.0000
8.1328	3249.0000
8.1532	3200.0000
8.1737	3388.0000
8.1942	3283.0000
8.2147	3162.0000
8.2352	3306.0000
8.2556	3268.0000
8.2761	3181.0000
8.2966	3208.0000
8.3171	3083.0000
8.3375	3118.0000
8.3580	3039.0000
8.3785	3051.0000
8.3990	3124.0000
8.4194	3124.0000
8.4399	2988.0000
8.4604	3015.0000
8.4809	3011.0000
8.5013	3013.0000
8.5218	2919.0000
8.5423	2975.0000
8.5628	2958.0000
8.5832	2918.0000
8.6037	2954.0000
8.6242	2934.0000
8.6447	2927.0000
8.6651	2844.0000
8.6856	2798.0000
8.7061	2807.0000
8.7266	2717.0000
8.7470	2824.0000
8.7675	2825.0000
8.7880	2779.0000
8.8085	2785.0000
8.8289	2734.0000
8.8494	2723.0000
8.8699	2830.0000
8.8904	2659.0000
8.9108	2745.0000
8.9313	2797.0000
8.9518	2718.0000
8.9723	2706.0000
8.9928	2702.0000
9.0132	2686.0000
9.0337	2598.0000
9.0542	2678.0000
9.0747	2672.0000
9.0951	2690.0000
9.1156	2511.0000
9.1361	2567.0000
9.1566	2595.0000
9.1770	2627.0000
9.1975	2570.0000
9.2180	2617.0000
9.2385	2608.0000
9.2589	2522.0000
9.2794	2590.0000
9.2999	2468.0000
9.3204	2488.0000
9.3408	2521.0000
9.3613	2548.0000
9.3818	2480.0000
9.4023	2435.0000
9.4227	2438.0000
9.4432	2470.0000
9.4637	2499.0000
9.4842	2477.0000
9.5046	2461.0000
9.5251	2368.0000
9.5456	2324.0000
9.5661	2465.0000
9.5865	2438.0000
9.6070	2385.0000
9.6275	2295.0000
9.6480	2439.0000
9.6684	2353.0000
9.6889	2365.0000
9.7094	2324.0000
9.7299	2401.0000
9.7504	2368.0000
9.7708	2429.0000
9.7913	2389.0000
9.8118	2421.0000
9.8323	2398.0000
9.8527	2337.0000
9.8732	2279.0000
9.8937	2392.0000
9.9142	2365.0000
9.9346	2354.0000
9.9551	2210.0000
9.9756	2263.0000
9.9961	2241.0000
10.0165	2186.0000
10.0370	2263.0000
10.0575	2280.0000
10.0780	2311.0000
10.0984	2267.0000
10.1189	2244.0000
10.1394	2355.0000
10.1599	2233.0000
10.1803	2240.0000
10.2008	2277.0000
10.2213	2241.0000
10.2418	2204.0000
10.2622	2173.0000
10.2827	2227.0000
10.3032	2142.0000
10.3237	2206.0000
10.3441	2233.0000
10.3646	2156.0000
10.3851	2106.0000
10.4056	2155.0000
10.4260	2114.0000
10.4465	2163.0000
10.4670	2183.0000
10.4875	2240.0000
10.5079	2200.0000
10.5284	2138.0000
10.5489	2162.0000
10.5694	2111.0000
10.5899	2144.0000
10.6103	2128.0000
10.6308	2122.0000
10.6513	2127.0000
10.6718	2102.0000
10.6922	2100.0000
10.7127	2093.0000
10.7332	2057.0000
10.7537	2198.0000
10.7741	2137.0000
10.7946	2097.0000
10.8151	2108.0000
10.8356	2062.0000
10.8560	2176.0000
10.8765	1991.0000
10.8970	2082.0000
10.9175	2026.0000
10.9379	2074.0000
10.9584	2064.0000
10.9789	2034.0000
10.9994	2002.0000
11.0198	2035.0000
11.0403	2036.0000
11.0608	2080.0000
11.0813	2027.0000
11.1017	2046.0000
11.1222	2061.0000
11.1427	2022.0000
11.1632	2048.0000
11.1836	1964.0000
11.2041	2064.0000
11.2246	1990.0000
11.2451	1995.0000
11.2655	2033.0000
11.2860	2030.0000
11.3065	2033.0000
11.3270	2024.0000
11.3475	2048.0000
11.3679	1948.0000
11.3884	1985.0000
11.4089	2012.0000
11.4294	1989.0000
11.4498	1891.0000
11.4703	1971.0000
11.4908	1926.0000
11.5113	1969.0000
11.5317	1935.0000
11.5522	1990.0000
11.5727	1954.0000
11.5932	1953.0000
11.6136	1929.0000
11.6341	1969.0000
11.6546	1952.0000
11.6751	1891.0000
11.6955	1876.0000
11.7160	1945.0000
11.7365	1974.0000
11.7570	1963.0000
11.7774	1918.0000
11.7979	1939.0000
11.8184	1891.0000
11.8389	1971.0000
11.8593	1846.0000
11.8798	1847.0000
11.9003	1885.0000
11.9208	1856.0000
11.9412	1853.0000
11.9617	1869.0000
11.9822	1827.0000
12.0027	1898.0000
12.0231	1835.0000
12.0436	1802.0000
12.0641	1843.0000
12.0846	1821.0000
12.1050	1847.0000
12.1255	1884.0000
12.1460	1852.0000
12.1665	1752.0000
12.1870	1802.0000
12.2074	1795.0000
12.2279	1890.0000
12.2484	1816.0000
12.2689	1783.0000
12.2893	1881.0000
12.3098	1762.0000
12.3303	1816.0000
12.3508	1793.0000
12.3712	1834.0000
12.3917	1749.0000
12.4122	1790.0000
12.4327	1810.0000
12.4531	1777.0000
12.4736	1805.0000
12.4941	1763.0000
12.5146	1814.0000
12.5350	1790.0000
12.5555	1837.0000
12.5760	1658.0000
12.5965	1716.0000
12.6169	1716.0000
12.6374	1765.0000
12.6579	1739.0000
12.6784	1813.0000
12.6988	1663.0000
12.7193	1774.0000
12.7398	1733.0000
12.7603	1661.0000
12.7807	1707.0000
12.8012	1702.0000
12.8217	1675.0000
12.8422	1749.0000
12.8626	1617.0000
12.8831	1683.0000
12.9036	1747.0000
12.9241	1660.0000
12.9446	1678.0000
12.9650	1615.0000
12.9855	1737.0000
13.0060	1718.0000
13.0265	1669.0000
13.0469	1648.0000
13.0674	1691.0000
13.0879	1618.0000
13.1084	1635.0000
13.1288	1686.0000
13.1493	1639.0000
13.1698	1658.0000
13.1903	1673.0000
13.2107	1567.0000
13.2312	1719.0000
13.2517	1627.0000
13.2722	1644.0000
13.2926	1666.0000
13.3131	1593.0000
13.3336	1589.0000
13.3541	1622.0000
13.3745	1571.0000
13.3950	1637.0000
13.4155	1618.0000
13.4360	1597.0000
13.4564	1615.0000
13.4769	1592.0000
13.4974	1633.0000
13.5179	1578.0000
13.5383	1621.0000
13.5588	1559.0000
13.5793	1611.0000
13.5998	1608.0000
13.6202	1650.0000
13.6407	1554.0000
13.6612	1620.0000
13.6817	1566.0000
13.7022	1577.0000
13.7226	1581.0000
13.7431	1515.0000
13.7636	1524.0000
13.7841	1582.0000
13.8045	1558.0000
13.8250	1537.0000
13.8455	1496.0000
13.8660	1532.0000
13.8864	1546.0000
13.9069	1523.0000
13.9274	1505.0000
13.9479	1518.0000
13.9683	1526.0000
13.9888	1527.0000
14.0093	1533.0000
14.0298	1473.0000
14.0502	1474.0000
14.0707	1463.0000
14.0912	1460.0000
14.1117	1601.0000
14.1321	1510.0000
14.1526	1551.0000
14.1731	1482.0000
14.1936	1634.0000
14.2140	1537.0000
14.2345	1523.0000
14.2550	1464.0000
14.2755	1456.0000
14.2959	1475.0000
14.3164	1447.0000
14.3369	1492.0000
14.3574	1541.0000
14.3778	1444.0000
14.3983	1485.0000
14.4188	1465.0000
14.4393	1434.0000
14.4597	1498.0000
14.4802	1423.0000
14.5007	1498.0000
14.5212	1491.0000
14.5417	1459.0000
14.5621	1505.0000
14.5826	1510.0000
14.6031	1441.0000
14.6236	1446.0000
14.6440	1509.0000
14.6645	1431.0000
14.6850	1414.0000
14.7055	1441.0000
14.7259	1484.0000
14.7464	1470.0000
14.7669	1468.0000
14.7874	1467.0000
14.8078	1392.0000
14.8283	1491.0000
14.8488	1456.0000
14.8693	1446.0000
14.8897	1523.0000
14.9102	1416.0000
14.9307	1473.0000
14.9512	1401.0000
14.9716	1486.0000
14.9921	1404.0000
15.0126	1383.0000
15.0331	1423.0000
15.0535	1382.0000
15.0740	1411.0000
15.0945	1433.0000
15.1150	1372.0000
15.1354	1414.0000
15.1559	1469.0000
15.1764	1442.0000
15.1969	1374.0000
15.2173	1439.0000
15.2378	1394.0000
15.2583	1407.0000
15.2788	1418.0000
15.2993	1354.0000
15.3197	1434.0000
15.3402	1444.0000
15.3607	1427.0000
15.3812	1343.0000
15.4016	1410.0000
15.4221	1437.0000
15.4426	1429.0000
15.4631	1452.0000
15.4835	1396.0000
15.5040	1369.0000
15.5245	1404.0000
15.5450	1382.0000
15.5654	1426.0000
15.5859	1396.0000
15.6064	1343.0000
15.6269	1418.0000
15.6473	1368.0000
15.6678	1459.0000
15.6883	1440.0000
15.7088	1404.0000
15.7292	1416.0000
15.7497	1427.0000
15.7702	1452.0000
15.7907	1385.0000
15.8111	1388.0000
15.8316	1321.0000
15.8521	1408.0000
15.8726	1366.0000
15.8930	1385.0000
15.9135	1368.0000
15.9340	1357.0000
15.9545	1391.0000
15.9749	1368.0000
15.9954	1420.0000
16.0159	1404.0000
16.0364	1378.0000
16.0568	1399.0000
16.0773	1348.0000
16.0978	1429.0000
16.1183	1416.0000
16.1388	1422.0000
16.1592	1428.0000
16.1797	1371.0000
16.2002	1371.0000
16.2207	1421.0000
16.2411	1410.0000
16.2616	1404.0000
16.2821	1353.0000
16.3026	1334.0000
16.3230	1303.0000
16.3435	1326.0000
16.3640	1360.0000
16.3845	1372.0000
16.4049	1435.0000
16.4254	1361.0000
16.4459	1359.0000
16.4664	1350.0000
16.4868	1339.0000
16.5073	1335.0000
16.5278	1420.0000
16.5483	1324.0000
16.5687	1367.0000
16.5892	1422.0000
16.6097	1287.0000
16.6302	1345.0000
16.6506	1360.0000
16.6711	1396.0000
16.6916	1348.0000
16.7121	1247.0000
16.7325	1394.0000
16.7530	1364.0000
16.7735	1360.0000
16.7940	1378.0000
16.8144	1377.0000
16.8349	1295.0000
16.8554	1340.0000
16.8759	1357.0000
16.8964	1356.0000
16.9168	1382.0000
16.9373	1389.0000
16.9578	1308.0000
16.9783	1333.0000
16.9987	1295.0000
17.0192	1361.0000
17.0397	1338.0000
17.0602	1345.0000
17.0806	1375.0000
17.1011	1332.0000
17.1216	1354.0000
17.1421	1322.0000
17.1625	1297.0000
17.1830	1347.0000
17.2035	1405.0000
17.2240	1275.0000
17.2444	1353.0000
17.2649	1294.0000
17.2854	1350.0000
17.3059	1329.0000
17.3263	1372.0000
17.3468	1294.0000
17.3673	1316.0000
17.3878	1346.0000
17.4082	1402.0000
17.4287	1324.0000
17.4492	1388.0000
17.4697	1331.0000
17.4901	1349.0000
17.5106	1262.0000
17.5311	1324.0000
17.5516	1356.0000
17.5720	1363.0000
17.5925	1324.0000
17.6130	1331.0000
17.6335	1321.0000
17.6539	1368.0000
17.6744	1349.0000
17.6949	1371.0000
17.7154	1318.0000
17.7359	1385.0000
17.7563	1330.0000
17.7768	1391.0000
17.7973	1383.0000
17.8178	1378.0000
17.8382	1355.0000
17.8587	1303.0000
17.8792	1365.0000
17.8997	1249.0000
17.9201	1336.0000
17.9406	1383.0000
17.9611	1356.0000
17.9816	1391.0000
18.0020	1350.0000
18.0225	1426.0000
18.0430	1361.0000
18.0635	1397.0000
18.0839	1390.0000
18.1044	1333.0000
18.1249	1346.0000
18.1454	1330.0000
18.1658	1400.0000
18.1863	1336.0000
18.2068	1274.0000
18.2273	1379.0000
18.2477	1382.0000
18.2682	1309.0000
18.2887	1358.0000
18.3092	1327.0000
18.3296	1342.0000
18.3501	1349.0000
18.3706	1336.0000
18.3911	1387.0000
18.4115	1335.0000
18.4320	1401.0000
18.4525	1353.0000
18.4730	1368.0000
18.4935	1359.0000
18.5139	1294.0000
18.5344	1324.0000
18.5549	1416.0000
18.5754	1384.0000
18.5958	1372.0000
18.6163	1369.0000
18.6368	1305.0000
18.6573	1338.0000
18.6777	1419.0000
18.6982	1364.0000
18.7187	1382.0000
18.7392	1363.0000
18.7596	1307.0000
18.7801	1320.0000
18.8006	1407.0000
18.8211	1310.0000
18.8415	1392.0000
18.8620	1362.0000
18.8825	1349.0000
18.9030	1328.0000
18.9234	1377.0000
18.9439	1413.0000
18.9644	1331.0000
18.9849	1363.0000
19.0053	1352.0000
19.0258	1323.0000
19.0463	1359.0000
19.0668	1355.0000
19.0872	1376.0000
19.1077	1409.0000
19.1282	1360.0000
19.1487	1301.0000
19.1691	1320.0000
19.1896	1312.0000
19.2101	1301.0000
19.2306	1334.0000
19.2511	1389.0000
19.2715	1338.0000
19.2920	1417.0000
19.3125	1394.0000
19.3330	1455.0000
19.3534	1362.0000
19.3739	1440.0000
19.3944	1403.0000
19.4149	1361.0000
19.4353	1421.0000
19.4558	1478.0000
19.4763	1331.0000
19.4968	1298.0000
19.5172	1447.0000
19.5377	1393.0000
19.5582	1426.0000
19.5787	1450.0000
19.5991	1347.0000
19.6196	1328.0000
19.6401	1346.0000
19.6606	1336.0000
19.6810	1378.0000
19.7015	1386.0000
19.7220	1398.0000
19.7425	1336.0000
19.7629	1307.0000
19.7834	1370.0000
19.8039	1428.0000
19.8244	1486.0000
19.8448	1356.0000
19.8653	1366.0000
19.8858	1427.0000
19.9063	1458.0000
19.9267	1323.0000
19.9472	1388.0000
19.9677	1388.0000
19.9882	1448.0000
20.0086	1352.0000
20.0291	1379.0000
20.0496	1388.0000
20.0701	1430.0000
20.0906	1371.0000
20.1110	1377.0000
20.1315	1373.0000
20.1520	1395.0000
20.1725	1464.0000
20.1929	1386.0000
20.2134	1410.0000
20.2339	1328.0000
20.2544	1324.0000
20.2748	1430.0000
20.2953	1485.0000
20.3158	1400.0000
20.3363	1443.0000
20.3567	1490.0000
20.3772	1446.0000
20.3977	1466.0000
20.4182	1354.0000
20.4386	1431.0000
20.4591	1463.0000
20.4796	1447.0000
20.5001	1453.0000
20.5205	1420.0000
20.5410	1436.0000
20.5615	1465.0000
20.5820	1433.0000
20.6024	1470.0000
20.6229	1362.0000
20.6434	1469.0000
20.6639	1412.0000
20.6843	1498.0000
20.7048	1456.0000
20.7253	1438.0000
20.7458	1471.0000
20.7662	1393.0000
20.7867	1399.0000
20.8072	1477.0000
20.8277	1490.0000
20.8482	1469.0000
20.8686	1478.0000
20.8891	1450.0000
20.9096	1460.0000
20.9301	1486.0000
20.9505	1482.0000
20.9710	1417.0000
20.9915	1440.0000
21.0120	1463.0000
21.0324	1462.0000
21.0529	1433.0000
21.0734	1483.0000
21.0939	1507.0000
21.1143	1420.0000
21.1348	1513.0000
21.1553	1446.0000
21.1758	1566.0000
21.1962	1503.0000
21.2167	1549.0000
21.2372	1481.0000
21.2577	1440.0000
21.2781	1578.0000
21.2986	1478.0000
21.3191	1516.0000
21.3396	1469.0000
21.3600	1526.0000
21.3805	1485.0000
21.4010	1463.0000
21.4215	1512.0000
21.4419	1479.0000
21.4624	1536.0000
21.4829	1524.0000
21.5034	1506.0000
21.5238	1478.0000
21.5443	1464.0000
21.5648	1495.0000
21.5853	1506.0000
21.6057	1555.0000
21.6262	1544.0000
21.6467	1540.0000
21.6672	1453.0000
21.6877	1500.0000
21.7081	1589.0000
21.7286	1531.0000
21.7491	1549.0000
21.7696	1530.0000
21.7900	1513.0000
21.8105	1499.0000
21.8310	1516.0000
21.8515	1543.0000
21.8719	1512.0000
21.8924	1475.0000
21.9129	1535.0000
21.9334	1529.0000
21.9538	1519.0000
21.9743	1547.0000
21.9948	1578.0000
22.0153	1642.0000
22.0357	1537.0000
22.0562	1555.0000
22.0767	1549.0000
22.0972	1566.0000
22.1176	1610.0000
22.1381	1559.0000
22.1586	1540.0000
22.1791	1547.0000
22.1995	1603.0000
22.2200	1549.0000
22.2405	1659.0000
22.2610	1591.0000
22.2814	1589.0000
22.3019	1688.0000
22.3224	1649.0000
22.3429	1689.0000
22.3633	1601.0000
22.3838	1594.0000
22.4043	1634.0000
22.4248	1626.0000
22.4453	1590.0000
22.4657	1684.0000
22.4862	1690.0000
22.5067	1572.0000
22.5272	1624.0000
22.5476	1612.0000
22.5681	1681.0000
22.5886	1684.0000
22.6091	1700.0000
22.6295	1633.0000
22.6500	1668.0000
22.6705	1562.0000
22.6910	1665.0000
22.7114	1587.0000
22.7319	1672.0000
22.7524	1636.0000
22.7729	1689.0000
22.7933	1606.0000
22.8138	1705.0000
22.8343	1650.0000
22.8548	1692.0000
22.8752	1706.0000
22.8957	1732.0000
22.9162	1726.0000
22.9367	1633.0000
22.9571	1749.0000
22.9776	1657.0000
22.9981	1701.0000
23.0186	1730.0000
23.0390	1723.0000
23.0595	1702.0000
23.0800	1763.0000
23.1005	1784.0000
23.1209	1716.0000
23.1414	1714.0000
23.1619	1751.0000
23.1824	1714.0000
23.2029	1703.0000
23.2233	1797.0000
23.2438	1808.0000
23.2643	1802.0000
23.2848	1726.0000
23.3052	1848.0000
23.3257	1731.0000
23.3462	1747.0000
23.3667	1762.0000
23.3871	1766.0000
23.4076	1832.0000
23.4281	1718.0000
23.4486	1808.0000
23.4690	1795.0000
23.4895	1786.0000
23.5100	1822.0000
23.5305	1845.0000
23.5509	1837.0000
23.5714	1861.0000
23.5919	1831.0000
23.6124	1816.0000
23.6328	1873.0000
23.6533	1895.0000
23.6738	1846.0000
23.6943	1836.0000
23.7147	1870.0000
23.7352	1877.0000
23.7557	1822.0000
23.7762	1888.0000
23.7966	1873.0000
23.8171	1822.0000
23.8376	1849.0000
23.8581	1918.0000
23.8785	1879.0000
23.8990	1782.0000
23.9195	1895.0000
23.9400	1870.0000
23.9604	1866.0000
23.9809	1869.0000
24.0014	1908.0000
24.0219	1918.0000
24.0424	1916.0000
24.0628	1954.0000
24.0833	1961.0000
24.1038	2010.0000
24.1243	2021.0000
24.1447	1936.0000
24.1652	1923.0000
24.1857	1966.0000
24.2062	1977.0000
24.2266	2022.0000
24.2471	1961.0000
24.2676	1966.0000
24.2881	2056.0000
24.3085	1985.0000
24.3290	1984.0000
24.3495	2010.0000
24.3700	2004.0000
24.3904	2093.0000
24.4109	2106.0000
24.4314	2133.0000
24.4519	2083.0000
24.4723	2143.0000
24.4928	2096.0000
24.5133	2108.0000
24.5338	2052.0000
24.5542	2098.0000
24.5747	2046.0000
24.5952	2198.0000
24.6157	2078.0000
24.6361	2211.0000
24.6566	2137.0000
24.6771	2196.0000
24.6976	2137.0000
24.7180	2122.0000
24.7385	2210.0000
24.7590	2171.0000
24.7795	2194.0000
24.8000	2210.0000
24.8204	2155.0000
24.8409	2192.0000
24.8614	2196.0000
24.8819	2153.0000
24.9023	2318.0000
24.9228	2265.0000
24.9433	2196.0000
24.9638	2180.0000
24.9842	2138.0000
25.0047	2281.0000
25.0252	2225.0000
25.0457	2184.0000
25.0661	2243.0000
25.0866	2304.0000
25.1071	2401.0000
25.1276	2308.0000
25.1480	2278.0000
25.1685	2365.0000
25.1890	2407.0000
25.2095	2377.0000
25.2299	2389.0000
25.2504	2395.0000
25.2709	2270.0000
25.2914	2381.0000
25.3118	2454.0000
25.3323	2348.0000
25.3528	2373.0000
25.3733	2399.0000
25.3937	2364.0000
25.4142	2377.0000
25.4347	2444.0000
25.4552	2513.0000
25.4756	2609.0000
25.4961	2468.0000
25.5166	2508.0000
25.5371	2556.0000
25.5575	2566.0000
25.5780	2562.0000
25.5985	2612.0000
25.6190	2514.0000
25.6395	2522.0000
25.6599	2590.0000
25.6804	2526.0000
25.7009	2604.0000
25.7214	2666.0000
25.7418	2587.0000
25.7623	2605.0000
25.7828	2693.0000
25.8033	2724.0000
25.8237	2709.0000
25.8442	2669.0000
25.8647	2600.0000
25.8852	2666.0000
25.9056	2692.0000
25.9261	2830.0000
25.9466	2688.0000
25.9671	2701.0000
25.9875	2775.0000
26.0080	2913.0000
26.0285	2876.0000
26.0490	2742.0000
26.0694	2742.0000
26.0899	2845.0000
26.1104	2850.0000
26.1309	2864.0000
26.1513	2874.0000
26.1718	2866.0000
26.1923	3009.0000
26.2128	2924.0000
26.2332	2962.0000
26.2537	2925.0000
26.2742	3000.0000
26.2947	3057.0000
26.3151	2972.0000
26.3356	2974.0000
26.3561	2962.0000
26.3766	3000.0000
26.3971	2894.0000
26.4175	3050.0000
26.4380	2979.0000
26.4585	3073.0000
26.4790	3058.0000
26.4994	3151.0000
26.5199	3085.0000
26.5404	3054.0000
26.5609	3125.0000
26.5813	3117.0000
26.6018	3166.0000
26.6223	3124.0000
26.6428	3231.0000
26.6632	3053.0000
26.6837	3139.0000
26.7042	3167.0000
26.7247	3252.0000
26.7451	3255.0000
26.7656	3248.0000
26.7861	3092.0000
26.8066	3306.0000
26.8270	3208.0000
26.8475	3218.0000
26.8680	3218.0000
26.8885	3262.0000
26.9089	3312.0000
26.9294	3303.0000
26.9499	3420.0000
26.9704	3382.0000
26.9908	3407.0000
27.0113	3362.0000
27.0318	3375.0000
27.0523	3311.0000
27.0727	3460.0000
27.0932	3378.0000
27.1137	3348.0000
27.1342	3412.0000
27.1547	3411.0000
27.1751	3479.0000
27.1956	3422.0000
27.2161	3413.0000
27.2366	3392.0000
27.2570	3335.0000
27.2775	3536.0000
27.2980	3509.0000
27.3185	3531.0000
27.3389	3627.0000
27.3594	3524.0000
27.3799	3470.0000
27.4004	3346.0000
27.4208	3500.0000
27.4413	3621.0000
27.4618	3515.0000
27.4823	3530.0000
27.5027	3572.0000
27.5232	3616.0000
27.5437	3704.0000
27.5642	3571.0000
27.5846	3581.0000
27.6051	3532.0000
27.6256	3543.0000
27.6461	3720.0000
27.6665	3665.0000
27.6870	3686.0000
27.7075	3672.0000
27.7280	3570.0000
27.7484	3678.0000
27.7689	3768.0000
27.7894	3719.0000
27.8099	3652.0000
27.8303	3689.0000
27.8508	3760.0000
27.8713	3586.0000
27.8918	3764.0000
27.9122	3670.0000
27.9327	3701.0000
27.9532	3648.0000
27.9737	3692.0000
27.9942	3724.0000
28.0146	3743.0000
28.0351	3685.0000
28.0556	3760.0000
28.0761	3648.0000
28.0965	3730.0000
28.1170	3696.0000
28.1375	3672.0000
28.1580	3661.0000
28.1784	3747.0000
28.1989	3791.0000
28.2194	3736.0000
28.2399	3751.0000
28.2603	3649.0000
28.2808	3775.0000
28.3013	3758.0000
28.3218	3613.0000
28.3422	3625.0000
28.3627	3651.0000
28.3832	3706.0000
28.4037	3754.0000
28.4241	3665.0000
28.4446	3751.0000
28.4651	3709.0000
28.4856	3743.0000
28.5060	3727.0000
28.5265	3722.0000
28.5470	3664.0000
28.5675	3714.0000
28.5879	3584.0000
28.6084	3765.0000
28.6289	3678.0000
28.6494	3577.0000
28.6698	3577.0000
28.6903	3679.0000
28.7108	3749.0000
28.7313	3557.0000
28.7518	3550.0000
28.7722	3648.0000
28.7927	3531.0000
28.8132	3647.0000
28.8337	3535.0000
28.8541	3545.0000
28.8746	3725.0000
28.8951	3644.0000
28.9156	3612.0000
28.9360	3669.0000
28.9565	3692.0000
28.9770	3434.0000
28.9975	3709.0000
29.0179	3574.0000
29.0384	3562.0000
29.0589	3569.0000
29.0794	3529.0000
29.0998	3584.0000
29.1203	3560.0000
29.1408	3544.0000
29.1613	3581.0000
29.1817	3594.0000
29.2022	3607.0000
29.2227	3555.0000
29.2432	3426.0000
29.2636	3580.0000
29.2841	3530.0000
29.3046	3543.0000
29.3251	3555.0000
29.3455	3484.0000
29.3660	3470.0000
29.3865	3537.0000
29.4070	3499.0000
29.4274	3472.0000
29.4479	3504.0000
29.4684	3458.0000
29.4889	3499.0000
29.5093	3501.0000
29.5298	3399.0000
29.5503	3389.0000
29.5708	3358.0000
29.5913	3342.0000
29.6117	3427.0000
29.6322	3303.0000
29.6527	3507.0000
29.6732	3430.0000
29.6936	3309.0000
29.7141	3366.0000
29.7346	3279.0000
29.7551	3286.0000
29.7755	3268.0000
29.7960	3311.0000
29.8165	3491.0000
29.8370	3453.0000
29.8574	3339.0000
29.8779	3362.0000
29.8984	3352.0000
29.9189	3438.0000
29.9393	3326.0000
29.9598	3354.0000
29.9803	3237.0000
30.0008	3261.0000
30.0212	3308.0000
30.0417	3340.0000
30.0622	3339.0000
30.0827	3127.0000
30.1031	3248.0000
30.1236	3228.0000
30.1441	3298.0000
30.1646	3249.0000
30.1850	3259.0000
30.2055	3245.0000
30.2260	3158.0000
30.2465	3238.0000
30.2669	3189.0000
30.2874	3295.0000
30.3079	3211.0000
30.3284	3300.0000
30.3489	3242.0000
30.3693	3240.0000
30.3898	3172.0000
30.4103	3239.0000
30.4308	3220.0000
30.4512	3317.0000
30.4717	3108.0000
30.4922	3319.0000
30.5127	3257.0000
30.5331	3282.0000
30.5536	3208.0000
30.5741	3185.0000
30.5946	3089.0000
30.6150	3184.0000
30.6355	3195.0000
30.6560	3199.0000
30.6765	3142.0000
30.6969	3244.0000
30.7174	3194.0000
30.7379	3282.0000
30.7584	3130.0000
30.7788	3054.0000
30.7993	3194.0000
30.8198	3126.0000
30.8403	3275.0000
30.8607	3160.0000
30.8812	3130.0000
30.9017	3226.0000
30.9222	3249.0000
30.9426	3372.0000
30.9631	3291.0000
30.9836	3263.0000
31.0041	3195.0000
31.0245	3216.0000
31.0450	3125.0000
31.0655	3217.0000
31.0860	3162.0000
31.1065	3186.0000
31.1269	3105.0000
31.1474	3181.0000
31.1679	3091.0000
31.1884	3169.0000
31.2088	3179.0000
31.2293	3102.0000
31.2498	3137.0000
31.2703	3142.0000
31.2907	3206.0000
31.3112	3159.0000
31.3317	3204.0000
31.3522	3156.0000
31.3726	3192.0000
31.3931	3191.0000
31.4136	3207.0000
31.4341	3219.0000
31.4545	3067.0000
31.4750	3170.0000
31.4955	3111.0000
31.5160	3261.0000
31.5364	3306.0000
31.5569	3275.0000
31.5774	3266.0000
31.5979	3142.0000
31.6183	3307.0000
31.6388	3359.0000
31.6593	3234.0000
31.6798	3159.0000
31.7002	3187.0000
31.7207	3234.0000
31.7412	3314.0000
31.7617	3272.0000
31.7821	3328.0000
31.8026	3354.0000
31.8231	3318.0000
31.8436	3280.0000
31.8640	3251.0000
31.8845	3318.0000
31.9050	3365.0000
31.9255	3320.0000
31.9460	3445.0000
31.9664	3344.0000
31.9869	3453.0000
32.0074	3410.0000
32.0279	3302.0000
32.0483	3394.0000
32.0688	3414.0000
32.0893	3404.0000
32.1098	3401.0000
32.1302	3478.0000
32.1507	3413.0000
32.1712	3396.0000
32.1917	3594.0000
32.2121	3527.0000
32.2326	3528.0000
32.2531	3387.0000
32.2736	3600.0000
32.2940	3546.0000
32.3145	3512.0000
32.3350	3520.0000
32.3555	3540.0000
32.3759	3577.0000
32.3964	3490.0000
32.4169	3487.0000
32.4374	3623.0000
32.4578	3559.0000
32.4783	3634.0000
32.4988	3658.0000
32.5193	3758.0000
32.5397	3764.0000
32.5602	3628.0000
32.5807	3711.0000
32.6012	3602.0000
32.6216	3757.0000
32.6421	3764.0000
32.6626	3667.0000
32.6831	3645.0000
32.7036	3750.0000
32.7240	3711.0000
32.7445	3752.0000
32.7650	3819.0000
32.7855	3862.0000
32.8059	3914.0000
32.8264	3891.0000
32.8469	3913.0000
32.8674	3908.0000
32.8878	3835.0000
32.9083	3794.0000
32.9288	3889.0000
32.9493	3936.0000
32.9697	4078.0000
32.9902	4141.0000
33.0107	4023.0000
33.0312	4139.0000
33.0516	4025.0000
33.0721	4002.0000
33.0926	4010.0000
33.1131	4235.0000
33.1335	4112.0000
33.1540	4132.0000
33.1745	4205.0000
33.1950	4277.0000
33.2154	4123.0000
33.2359	4292.0000
33.2564	4293.0000
33.2769	4273.0000
33.2973	4359.0000
33.3178	4273.0000
33.3383	4185.0000
33.3588	4398.0000
33.3792	4386.0000
33.3997	4384.0000
33.4202	4400.0000
33.4407	4425.0000
33.4611	4510.0000
33.4816	4520.0000
33.5021	4605.0000
33.5226	4408.0000
33.5431	4529.0000
33.5635	4616.0000
33.5840	4664.0000
33.6045	4509.0000
33.6250	4534.0000
33.6454	4593.0000
33.6659	4600.0000
33.6864	4723.0000
33.7069	4747.0000
33.7273	4729.0000
33.7478	4818.0000
33.7683	4745.0000
33.7888	4725.0000
33.8092	4677.0000
33.8297	4758.0000
33.8502	4855.0000
33.8707	4733.0000
33.8911	4825.0000
33.9116	4792.0000
33.9321	4752.0000
33.9526	4937.0000
33.9730	4848.0000
33.9935	4867.0000
34.0140	4907.0000
34.0345	4867.0000
34.0549	4841.0000
34.0754	4836.0000
34.0959	4900.0000
34.1164	4959.0000
34.1368	4812.0000
34.1573	5048.0000
34.1778	4963.0000
34.1983	4984.0000
34.2187	4961.0000
34.2392	5087.0000
34.2597	5065.0000
34.2802	5063.0000
34.3007	4939.0000
34.3211	5188.0000
34.3416	4926.0000
34.3621	5099.0000
34.3826	5057.0000
34.4030	5062.0000
34.4235	5113.0000
34.4440	5093.0000
34.4645	5114.0000
34.4849	5152.0000
34.5054	5263.0000
34.5259	5057.0000
34.5464	4976.0000
34.5668	5102.0000
34.5873	5039.0000
34.6078	5088.0000
34.6283	4996.0000
34.6487	5089.0000
34.6692	5150.0000
34.6897	5096.0000
34.7102	5029.0000
34.7306	5028.0000
34.7511	4980.0000
34.7716	5112.0000
34.7921	5033.0000
34.8125	5110.0000
34.8330	5027.0000
34.8535	4952.0000
34.8740	4946.0000
34.8944	4879.0000
34.9149	4844.0000
34.9354	4932.0000
34.9559	4942.0000
34.9763	4919.0000
34.9968	4907.0000
35.0173	4889.0000
35.0378	4873.0000
35.0582	4999.0000
35.0787	4948.0000
35.0992	4820.0000
35.1197	4861.0000
35.1402	4813.0000
35.1606	4788.0000
35.1811	4948.0000
35.2016	4781.0000
35.2221	4837.0000
35.2425	4889.0000
35.2630	4654.0000
35.2835	4771.0000
35.3040	4682.0000
35.3244	4695.0000
35.3449	4692.0000
35.3654	4681.0000
35.3859	4667.0000
35.4063	4663.0000
35.4268	4831.0000
35.4473	4741.0000
35.4678	4799.0000
35.4882	4607.0000
35.5087	4666.0000
35.5292	4694.0000
35.5497	4506.0000
35.5701	4490.0000
35.5906	4657.0000
35.6111	4429.0000
35.6316	4438.0000
35.6520	4446.0000
35.6725	4442.0000
35.6930	4280.0000
35.7135	4356.0000
35.7339	4379.0000
35.7544	4279.0000
35.7749	4241.0000
35.7954	4300.0000
35.8158	4142.0000
35.8363	4200.0000
35.8568	4292.0000
35.8773	4181.0000
35.8978	4237.0000
35.9182	4048.0000
35.9387	4116.0000
35.9592	3998.0000
35.9797	4161.0000
36.0001	4023.0000
36.0206	4106.0000
36.0411	4112.0000
36.0616	4075.0000
36.0820	3906.0000
36.1025	3906.0000
36.1230	4011.0000
36.1435	4087.0000
36.1639	3822.0000
36.1844	3921.0000
36.2049	3792.0000
36.2254	3885.0000
36.2458	3835.0000
36.2663	3813.0000
36.2868	3881.0000
36.3073	3712.0000
36.3277	3870.0000
36.3482	3780.0000
36.3687	3806.0000
36.3892	3727.0000
36.4096	3704.0000
36.4301	3730.0000
36.4506	3551.0000
36.4711	3747.0000
36.4915	3593.0000
36.5120	3655.0000
36.5325	3562.0000
36.5530	3564.0000
36.5734	3665.0000
36.5939	3535.0000
36.6144	3490.0000
36.6349	3505.0000
36.6554	3527.0000
36.6758	3396.0000
36.6963	3378.0000
36.7168	3427.0000
36.7373	3431.0000
36.7577	3355.0000
36.7782	3338.0000
36.7987	3369.0000
36.8192	3407.0000
36.8396	3350.0000
36.8601	3394.0000
36.8806	3256.0000
36.9011	3396.0000
36.9215	3169.0000
36.9420	3326.0000
36.9625	3252.0000
36.9830	3173.0000
37.0034	3203.0000
37.0239	3171.0000
37.0444	3169.0000
37.0649	3250.0000
37.0853	3092.0000
37.1058	3064.0000
37.1263	3092.0000
37.1468	3094.0000
37.1672	3095.0000
37.1877	3086.0000
37.2082	3102.0000
37.2287	3087.0000
37.2491	3046.0000
37.2696	3062.0000
37.2901	3023.0000
37.3106	3060.0000
37.3310	3016.0000
37.3515	2976.0000
37.3720	3045.0000
37.3925	2945.0000
37.4129	2948.0000
37.4334	2838.0000
37.4539	2947.0000
37.4744	2922.0000
37.4949	2939.0000
37.5153	3047.0000
37.5358	3000.0000
37.5563	3003.0000
37.5768	2863.0000
37.5972	2913.0000
37.6177	2860.0000
37.6382	2834.0000
37.6587	2873.0000
37.6791	2883.0000
37.6996	2900.0000
37.7201	2791.0000
37.7406	2886.0000
37.7610	2828.0000
37.7815	2815.0000
37.8020	2671.0000
37.8225	2813.0000
37.8429	2769.0000
37.8634	2728.0000
37.8839	2832.0000
37.9044	2775.0000
37.9248	2745.0000
37.9453	2774.0000
37.9658	2717.0000
37.9863	2710.0000
38.0067	2718.0000
38.0272	2711.0000
38.0477	2753.0000
38.0682	2616.0000
38.0886	2665.0000
38.1091	2683.0000
38.1296	2695.0000
38.1501	2601.0000
38.1705	2749.0000
38.1910	2602.0000
38.2115	2739.0000
38.2320	2702.0000
38.2525	2664.0000
38.2729	2625.0000
38.2934	2595.0000
38.3139	2637.0000
38.3344	2720.0000
38.3548	2707.0000
38.3753	2641.0000
38.3958	2600.0000
38.4163	2690.0000
38.4367	2616.0000
38.4572	2654.0000
38.4777	2592.0000
38.4982	2666.0000
38.5186	2635.0000
38.5391	2557.0000
38.5596	2590.0000
38.5801	2558.0000
38.6005	2645.0000
38.6210	2662.0000
38.6415	2570.0000
38.6620	2579.0000
38.6824	2547.0000
38.7029	2622.0000
38.7234	2625.0000
38.7439	2621.0000
38.7643	2501.0000
38.7848	2498.0000
38.8053	2515.0000
38.8258	2495.0000
38.8462	2546.0000
38.8667	2517.0000
38.8872	2519.0000
38.9077	2562.0000
38.9281	2466.0000
38.9486	2470.0000
38.9691	2448.0000
38.9896	2549.0000
39.0100	2481.0000
39.0305	2472.0000
39.0510	2505.0000
39.0715	2559.0000
39.0920	2416.0000
39.1124	2514.0000
39.1329	2516.0000
39.1534	2431.0000
39.1739	2382.0000
39.1943	2483.0000
39.2148	2448.0000
39.2353	2381.0000
39.2558	2446.0000
39.2762	2458.0000
39.2967	2424.0000
39.3172	2486.0000
39.3377	2439.0000
39.3581	2423.0000
39.3786	2476.0000
39.3991	2370.0000
39.4196	2318.0000
39.4400	2344.0000
39.4605	2418.0000
39.4810	2408.0000
39.5015	2383.0000
39.5219	2331.0000
39.5424	2322.0000
39.5629	2404.0000
39.5834	2303.0000
39.6038	2309.0000
39.6243	2394.0000
39.6448	2275.0000
39.6653	2327.0000
39.6857	2270.0000
39.7062	2345.0000
39.7267	2385.0000
39.7472	2297.0000
39.7676	2384.0000
39.7881	2346.0000
39.8086	2229.0000
39.8291	2285.0000
39.8496	2195.0000
39.8700	2294.0000
39.8905	2300.0000
39.9110	2237.0000
39.9315	2238.0000
39.9519	2302.0000
39.9724	2255.0000
39.9929	2283.0000
40.0134	2222.0000
40.0338	2174.0000
40.0543	2252.0000
40.0748	2271.0000
40.0953	2308.0000
40.1157	2308.0000
40.1362	2227.0000
40.1567	2210.0000
40.1772	2211.0000
40.1976	2236.0000
40.2181	2271.0000
40.2386	2282.0000
40.2591	2171.0000
40.2795	2212.0000
40.3000	2219.0000
40.3205	2185.0000
40.3410	2153.0000
40.3614	2128.0000
40.3819	2142.0000
40.4024	2256.0000
40.4229	2200.0000
40.4433	2131.0000
40.4638	2115.0000
40.4843	2166.0000
40.5048	2101.0000
40.5252	2170.0000
40.5457	2098.0000
40.5662	2163.0000
40.5867	2067.0000
40.6072	2118.0000
40.6276	2073.0000
40.6481	2068.0000
40.6686	2106.0000
40.6891	2012.0000
40.7095	2155.0000
40.7300	2005.0000
40.7505	2199.0000
40.7710	2114.0000
40.7914	2059.0000
40.8119	2110.0000
40.8324	2068.0000
40.8529	2107.0000
40.8733	2105.0000
40.8938	2114.0000
40.9143	2116.0000
40.9348	2060.0000
40.9552	2020.0000
40.9757	2065.0000
40.9962	2064.0000
41.0167	2042.0000
41.0371	2068.0000
41.0576	2068.0000
41.0781	2109.0000
41.0986	1992.0000
41.1190	1997.0000
41.1395	1958.0000
41.1600	2011.0000
41.1805	1966.0000
41.2009	1931.0000
41.2214	1925.0000
41.2419	1955.0000
41.2624	1998.0000
41.2828	2108.0000
41.3033	1898.0000
41.3238	1889.0000
41.3443	1950.0000
41.3647	1972.0000
41.3852	1924.0000
41.4057	1959.0000
41.4262	1914.0000
41.4467	1969.0000
41.4671	1946.0000
41.4876	1992.0000
41.5081	1898.0000
41.5286	1884.0000
41.5490	1879.0000
41.5695	2031.0000
41.5900	1855.0000
41.6105	2009.0000
41.6309	1843.0000
41.6514	1895.0000
41.6719	1859.0000
41.6924	1879.0000
41.7128	1948.0000
41.7333	1883.0000
41.7538	1765.0000
41.7743	1875.0000
41.7947	1946.0000
41.8152	1846.0000
41.8357	1864.0000
41.8562	1815.0000
41.8766	1802.0000
41.8971	1830.0000
41.9176	1778.0000
41.9381	1879.0000
41.9585	1815.0000
41.9790	1772.0000
41.9995	1779.0000
42.0200	1845.0000
42.0404	1782.0000
42.0609	1805.0000
42.0814	1855.0000
42.1019	1810.0000
42.1223	1769.0000
42.1428	1777.0000
42.1633	1766.0000
42.1838	1779.0000
42.2043	1867.0000
42.2247	1795.0000
42.2452	1807.0000
42.2657	1773.0000
42.2862	1727.0000
42.3066	1696.0000
42.3271	1748.0000
42.3476	1737.0000
42.3681	1733.0000
42.3885	1749.0000
42.4090	1802.0000
42.4295	1772.0000
42.4500	1757.0000
42.4704	1746.0000
42.4909	1641.0000
42.5114	1749.0000
42.5319	1740.0000
42.5523	1738.0000
42.5728	1718.0000
42.5933	1688.0000
42.6138	1657.0000
42.6342	1773.0000
42.6547	1776.0000
42.6752	1722.0000
42.6957	1673.0000
42.7161	1709.0000
42.7366	1717.0000
42.7571	1730.0000
42.7776	1631.0000
42.7980	1636.0000
42.8185	1672.0000
42.8390	1697.0000
42.8595	1673.0000
42.8799	1683.0000
42.9004	1707.0000
42.9209	1683.0000
42.9414	1711.0000
42.9618	1660.0000
42.9823	1602.0000
43.0028	1626.0000
43.0233	1678.0000
43.0438	1721.0000
43.0642	1664.0000
43.0847	1571.0000
43.1052	1679.0000
43.1257	1662.0000
43.1461	1686.0000
43.1666	1756.0000
43.1871	1656.0000
43.2076	1659.0000
43.2280	1605.0000
43.2485	1671.0000
43.2690	1682.0000
43.2895	1660.0000
43.3099	1567.0000
43.3304	1688.0000
43.3509	1621.0000
43.3714	1700.0000
43.3918	1579.0000
43.4123	1626.0000
43.4328	1563.0000
43.4533	1635.0000
43.4737	1626.0000
43.4942	1625.0000
43.5147	1562.0000
43.5352	1587.0000
43.5556	1571.0000
43.5761	1582.0000
43.5966	1545.0000
43.6171	1562.0000
43.6375	1520.0000
43.6580	1634.0000
43.6785	1633.0000
43.6990	1637.0000
43.7194	1635.0000
43.7399	1651.0000
43.7604	1588.0000
43.7809	1594.0000
43.8014	1624.0000
43.8218	1567.0000
43.8423	1631.0000
43.8628	1567.0000
43.8833	1590.0000
43.9037	1599.0000
43.9242	1624.0000
43.9447	1549.0000
43.9652	1569.0000
43.9856	1582.0000
44.0061	1621.0000
44.0266	1569.0000
44.0471	1623.0000
44.0675	1533.0000
44.0880	1609.0000
44.1085	1578.0000
44.1290	1579.0000
44.1494	1545.0000
44.1699	1648.0000
44.1904	1546.0000
44.2109	1558.0000
44.2313	1593.0000
44.2518	1483.0000
44.2723	1563.0000
44.2928	1471.0000
44.3132	1542.0000
44.3337	1551.0000
44.3542	1529.0000
44.3747	1540.0000
44.3951	1606.0000
44.4156	1567.0000
44.4361	1514.0000
44.4566	1592.0000
44.4770	1511.0000
44.4975	1543.0000
44.5180	1583.0000
44.5385	1431.0000
44.5590	1583.0000
44.5794	1491.0000
44.5999	1543.0000
44.6204	1560.0000
44.6409	1545.0000
44.6613	1547.0000
44.6818	1535.0000
44.7023	1472.0000
44.7228	1583.0000
44.7432	1567.0000
44.7637	1541.0000
44.7842	1520.0000
44.8047	1470.0000
44.8251	1524.0000
44.8456	1581.0000
44.8661	1567.0000
44.8866	1575.0000
44.9070	1517.0000
44.9275	1528.0000
44.9480	1608.0000
44.9685	1582.0000
44.9889	1522.0000
45.0094	1581.0000
45.0299	1638.0000
45.0504	1539.0000
45.0708	1527.0000
45.0913	1534.0000
45.1118	1529.0000
45.1323	1561.0000
45.1527	1506.0000
45.1732	1564.0000
45.1937	1522.0000
45.2142	1487.0000
45.2346	1531.0000
45.2551	1513.0000
45.2756	1610.0000
45.2961	1525.0000
45.3165	1492.0000
45.3370	1551.0000
45.3575	1578.0000
45.3780	1538.0000
45.3985	1517.0000
45.4189	1577.0000
45.4394	1621.0000
45.4599	1513.0000
45.4804	1548.0000
45.5008	1517.0000
45.5213	1503.0000
45.5418	1573.0000
45.5623	1555.0000
45.5827	1514.0000
45.6032	1549.0000
45.6237	1523.0000
45.6442	1541.0000
45.6646	1536.0000
45.6851	1561.0000
45.7056	1576.0000
45.7261	1574.0000
45.7465	1493.0000
45.7670	1545.0000
45.7875	1567.0000
45.8080	1489.0000
45.8284	1511.0000
45.8489	1494.0000
45.8694	1522.0000
45.8899	1517.0000
45.9103	1534.0000
45.9308	1562.0000
45.9513	1610.0000
45.9718	1598.0000
45.9922	1535.0000
46.0127	1544.0000
46.0332	1548.0000
46.0537	1559.0000
46.0741	1597.0000
46.0946	1486.0000
46.1151	1614.0000
46.1356	1489.0000
46.1561	1592.0000
46.1765	1629.0000
46.1970	1616.0000
46.2175	1507.0000
46.2380	1563.0000
46.2584	1609.0000
46.2789	1553.0000
46.2994	1563.0000
46.3199	1559.0000
46.3403	1609.0000
46.3608	1555.0000
46.3813	1515.0000
46.4018	1493.0000
46.4222	1569.0000
46.4427	1469.0000
46.4632	1533.0000
46.4837	1473.0000
46.5041	1570.0000
46.5246	1533.0000
46.5451	1565.0000
46.5656	1564.0000
46.5860	1564.0000
46.6065	1618.0000
46.6270	1490.0000
46.6475	1507.0000
46.6679	1604.0000
46.6884	1476.0000
46.7089	1535.0000
46.7294	1523.0000
46.7498	1528.0000
46.7703	1583.0000
46.7908	1539.0000
46.8113	1568.0000
46.8317	1521.0000
46.8522	1594.0000
46.8727	1600.0000
46.8932	1534.0000
46.9136	1563.0000
46.9341	1508.0000
46.9546	1581.0000
46.9751	1621.0000
46.9956	1616.0000
47.0160	1634.0000
47.0365	1575.0000
47.0570	1513.0000
47.0775	1640.0000
47.0979	1630.0000
47.1184	1590.0000
47.1389	1575.0000
47.1594	1640.0000
47.1798	1590.0000
47.2003	1590.0000
47.2208	1590.0000
47.2413	1672.0000
47.2617	1572.0000
47.2822	1616.0000
47.3027	1662.0000
47.3232	1734.0000
47.3436	1580.0000
47.3641	1550.0000
47.3846	1592.0000
47.4051	1523.0000
47.4255	1638.0000
47.4460	1576.0000
47.4665	1637.0000
47.4870	1611.0000
47.5074	1572.0000
47.5279	1651.0000
47.5484	1572.0000
47.5689	1639.0000
47.5893	1698.0000
47.6098	1558.0000
47.6303	1578.0000
47.6508	1599.0000
47.6712	1616.0000
47.6917	1594.0000
47.7122	1676.0000
47.7327	1570.0000
47.7532	1647.0000
47.7736	1663.0000
47.7941	1632.0000
47.8146	1614.0000
47.8351	1650.0000
47.8555	1660.0000
47.8760	1664.0000
47.8965	1570.0000
47.9170	1651.0000
47.9374	1636.0000
47.9579	1616.0000
47.9784	1608.0000
47.9989	1640.0000
48.0193	1651.0000
48.0398	1612.0000
48.0603	1626.0000
48.0808	1664.0000
48.1012	1616.0000
48.1217	1639.0000
48.1422	1684.0000
48.1627	1668.0000
48.1831	1713.0000
48.2036	1601.0000
48.2241	1666.0000
48.2446	1633.0000
48.2650	1625.0000
48.2855	1638.0000
48.3060	1706.0000
48.3265	1636.0000
48.3469	1711.0000
48.3674	1629.0000
48.3879	1714.0000
48.4084	1690.0000
48.4288	1705.0000
48.4493	1677.0000
48.4698	1669.0000
48.4903	1744.0000
48.5108	1720.0000
48.5312	1652.0000
48.5517	1731.0000
48.5722	1721.0000
48.5927	1721.0000
48.6131	1739.0000
48.6336	1739.0000
48.6541	1761.0000
48.6746	1831.0000
48.6950	1725.0000
48.7155	1748.0000
48.7360	1759.0000
48.7565	1732.0000
48.7769	1750.0000
48.7974	1739.0000
48.8179	1766.0000
48.8384	1751.0000
48.8588	1801.0000
48.8793	1737.0000
48.8998	1809.0000
48.9203	1786.0000
48.9407	1750.0000
48.9612	1793.0000
48.9817	1791.0000
49.0022	1753.0000
49.0226	1775.0000
49.0431	1731.0000
49.0636	1795.0000
49.0841	1795.0000
49.1045	1822.0000
49.1250	1769.0000
49.1455	1762.0000
49.1660	1761.0000
49.1864	1772.0000
49.2069	1814.0000
49.2274	1858.0000
49.2479	1830.0000
49.2683	1830.0000
49.2888	1844.0000
49.3093	1761.0000
49.3298	1778.0000
49.3503	1786.0000
49.3707	1821.0000
49.3912	1784.0000
49.4117	1814.0000
49.4322	1747.0000
49.4526	1853.0000
49.4731	1883.0000
49.4936	1828.0000
49.5141	1842.0000
49.5345	1863.0000
49.5550	1886.0000
49.5755	1893.0000
49.5960	1836.0000
49.6164	1793.0000
49.6369	1879.0000
49.6574	1970.0000
49.6779	1917.0000
49.6983	1858.0000
49.7188	1918.0000
49.7393	1891.0000
49.7598	1811.0000
49.7802	1819.0000
49.8007	1884.0000
49.8212	1785.0000
49.8417	1884.0000
49.8621	1857.0000
49.8826	1989.0000
49.9031	1897.0000
49.9236	1904.0000
49.9440	1950.0000
49.9645	1993.0000
49.9850	1892.0000
50.0055	1988.0000
50.0259	2016.0000
50.0464	1877.0000
50.0669	1933.0000
50.0874	1975.0000
50.1079	1990.0000
50.1283	1977.0000
50.1488	1977.0000
50.1693	1990.0000
50.1898	2016.0000
50.2102	2021.0000
50.2307	2070.0000
50.2512	2062.0000
50.2717	2127.0000
50.2921	2006.0000
50.3126	2000.0000
50.3331	2006.0000
50.3536	1995.0000
50.3740	2096.0000
50.3945	2057.0000
50.4150	2077.0000
50.4355	2127.0000
50.4559	1987.0000
50.4764	2139.0000
50.4969	2091.0000
50.5174	2100.0000
50.5378	2121.0000
50.5583	2073.0000
50.5788	2159.0000
50.5993	2156.0000
50.6197	2077.0000
50.6402	2130.0000
50.6607	2084.0000
50.6812	2151.0000
50.7016	2102.0000
50.7221	2156.0000
50.7426	2168.0000
50.7631	2213.0000
50.7835	2186.0000
50.8040	2183.0000
50.8245	2224.0000
50.8450	2142.0000
50.8654	2274.0000
50.8859	2154.0000
50.9064	2181.0000
50.9269	2221.0000
50.9474	2206.0000
50.9678	2318.0000
50.9883	2234.0000
51.0088	2265.0000
51.0293	2259.0000
51.0497	2297.0000
51.0702	2395.0000
51.0907	2296.0000
51.1112	2345.0000
51.1316	2181.0000
51.1521	2311.0000
51.1726	2300.0000
51.1931	2445.0000
51.2135	2376.0000
51.2340	2323.0000
51.2545	2404.0000
51.2750	2298.0000
51.2954	2352.0000
51.3159	2373.0000
51.3364	2401.0000
51.3569	2353.0000
51.3773	2346.0000
51.3978	2396.0000
51.4183	2410.0000
51.4388	2405.0000
51.4592	2419.0000
51.4797	2483.0000
51.5002	2593.0000
51.5207	2419.0000
51.5411	2488.0000
51.5616	2537.0000
51.5821	2457.0000
51.6026	2519.0000
51.6230	2469.0000
51.6435	2550.0000
51.6640	2460.0000
51.6845	2508.0000
51.7050	2517.0000
51.7254	2536.0000
51.7459	2607.0000
51.7664	2564.0000
51.7869	2606.0000
51.8073	2655.0000
51.8278	2667.0000
51.8483	2704.0000
51.8688	2677.0000
51.8892	2635.0000
51.9097	2611.0000
51.9302	2681.0000
51.9507	2744.0000
51.9711	2749.0000
51.9916	2756.0000
52.0121	2718.0000
52.0326	2685.0000
52.0530	2760.0000
52.0735	2649.0000
52.0940	2720.0000
52.1145	2658.0000
52.1349	2770.0000
52.1554	2734.0000
52.1759	2875.0000
52.1964	2791.0000
52.2168	2719.0000
52.2373	2883.0000
52.2578	2772.0000
52.2783	2854.0000
52.2987	2921.0000
52.3192	2763.0000
52.3397	2889.0000
52.3602	2858.0000
52.3806	2868.0000
52.4011	2855.0000
52.4216	2899.0000
52.4421	2877.0000
52.4625	2954.0000
52.4830	2964.0000
52.5035	2893.0000
52.5240	2924.0000
52.5445	3042.0000
52.5649	3019.0000
52.5854	2875.0000
52.6059	2968.0000
52.6264	2998.0000
52.6468	3077.0000
52.6673	2954.0000
52.6878	3036.0000
52.7083	3046.0000
52.7287	2934.0000
52.7492	2957.0000
52.7697	3071.0000
52.7902	3060.0000
52.8106	2986.0000
52.8311	3022.0000
52.8516	3154.0000
52.8721	3028.0000
52.8925	3207.0000
52.9130	3172.0000
52.9335	3147.0000
52.9540	2984.0000
52.9744	3179.0000
52.9949	3021.0000
53.0154	3051.0000
53.0359	3085.0000
53.0563	3125.0000
53.0768	3109.0000
53.0973	3223.0000
53.1178	3172.0000
53.1382	3262.0000
53.1587	3187.0000
53.1792	3229.0000
53.1997	3243.0000
53.2201	3287.0000
53.2406	3098.0000
53.2611	3177.0000
53.2816	3253.0000
53.3021	3224.0000
53.3225	3218.0000
53.3430	3194.0000
53.3635	3295.0000
53.3840	3214.0000
53.4044	3300.0000
53.4249	3185.0000
53.4454	3159.0000
53.4659	3286.0000
53.4863	3208.0000
53.5068	3355.0000
53.5273	3219.0000
53.5478	3214.0000
53.5682	3357.0000
53.5887	3372.0000
53.6092	3303.0000
53.6297	3277.0000
53.6501	3316.0000
53.6706	3357.0000
53.6911	3357.0000
53.7116	3295.0000
53.7320	3344.0000
53.7525	3361.0000
53.7730	3360.0000
53.7935	3254.0000
53.8139	3329.0000
53.8344	3378.0000
53.8549	3312.0000
53.8754	3465.0000
53.8958	3466.0000
53.9163	3349.0000
53.9368	3380.0000
53.9573	3319.0000
53.9777	3502.0000
53.9982	3338.0000
54.0187	3293.0000
54.0392	3454.0000
54.0597	3343.0000
54.0801	3354.0000
54.1006	3353.0000
54.1211	3307.0000
54.1416	3435.0000
54.1620	3324.0000
54.1825	3369.0000
54.2030	3445.0000
54.2235	3367.0000
54.2439	3427.0000
54.2644	3377.0000
54.2849	3442.0000
54.3054	3382.0000
54.3258	3256.0000
54.3463	3304.0000
54.3668	3402.0000
54.3873	3182.0000
54.4077	3269.0000
54.4282	3301.0000
54.4487	3251.0000
54.4692	3287.0000
54.4896	3237.0000
54.5101	3358.0000
54.5306	3406.0000
54.5511	3286.0000
54.5715	3375.0000
54.5920	3353.0000
54.6125	3340.0000
54.6330	3386.0000
54.6534	3263.0000
54.6739	3248.0000
54.6944	3282.0000
54.7149	3227.0000
54.7353	3286.0000
54.7558	3165.0000
54.7763	3233.0000
54.7968	3339.0000
54.8172	3281.0000
54.8377	3227.0000
54.8582	3298.0000
54.8787	3211.0000
54.8992	3249.0000
54.9196	3318.0000
54.9401	3190.0000
54.9606	3188.0000
54.9811	3208.0000
55.0015	3207.0000
55.0220	3201.0000
55.0425	3263.0000
55.0630	3369.0000
55.0834	3297.0000
55.1039	3266.0000
55.1244	3157.0000
55.1449	3169.0000
55.1653	3188.0000
55.1858	3167.0000
55.2063	3168.0000
55.2268	3157.0000
55.2472	3242.0000
55.2677	3107.0000
55.2882	3259.0000
55.3087	3161.0000
55.3291	3223.0000
55.3496	3209.0000
55.3701	3174.0000
55.3906	3103.0000
55.4110	3059.0000
55.4315	3052.0000
55.4520	2996.0000
55.4725	3042.0000
55.4929	3150.0000
55.5134	2971.0000
55.5339	3068.0000
55.5544	3020.0000
55.5748	3070.0000
55.5953	2974.0000
55.6158	3087.0000
55.6363	2946.0000
55.6568	3016.0000
55.6772	2916.0000
55.6977	3068.0000
55.7182	2952.0000
55.7387	3058.0000
55.7591	3094.0000
55.7796	2890.0000
55.8001	2955.0000
55.8206	2991.0000
55.8410	3074.0000
55.8615	2989.0000
55.8820	2979.0000
55.9025	2861.0000
55.9229	2927.0000
55.9434	2908.0000
55.9639	2945.0000
55.9844	3010.0000
56.0048	2936.0000
56.0253	2981.0000
56.0458	2957.0000
56.0663	2915.0000
56.0867	2973.0000
56.1072	2904.0000
56.1277	2886.0000
56.1482	2909.0000
56.1686	2880.0000
56.1891	2941.0000
56.2096	2807.0000
56.2301	2876.0000
56.2505	2851.0000
56.2710	2892.0000
56.2915	2779.0000
56.3120	2863.0000
56.3324	2862.0000
56.3529	2862.0000
56.3734	2757.0000
56.3939	2853.0000
56.4143	2759.0000
56.4348	2813.0000
56.4553	2754.0000
56.4758	2829.0000
56.4963	2709.0000
56.5167	2864.0000
56.5372	2848.0000
56.5577	2783.0000
56.5782	2815.0000
56.5986	2781.0000
56.6191	2784.0000
56.6396	2813.0000
56.6601	2731.0000
56.6805	2815.0000
56.7010	2635.0000
56.7215	2740.0000
56.7420	2753.0000
56.7624	2721.0000
56.7829	2766.0000
56.8034	2848.0000
56.8239	2796.0000
56.8443	2798.0000
56.8648	2750.0000
56.8853	2801.0000
56.9058	2755.0000
56.9262	2687.0000
56.9467	2682.0000
56.9672	2708.0000
56.9877	2805.0000
57.0081	2688.0000
57.0286	2655.0000
57.0491	2646.0000
57.0696	2726.0000
57.0900	2672.0000
57.1105	2696.0000
57.1310	2738.0000
57.1515	2649.0000
57.1719	2708.0000
57.1924	2623.0000
57.2129	2677.0000
57.2334	2671.0000
57.2539	2647.0000
57.2743	2672.0000
57.2948	2617.0000
57.3153	2714.0000
57.3358	2535.0000
57.3562	2573.0000
57.3767	2686.0000
57.3972	2523.0000
57.4177	2633.0000
57.4381	2528.0000
57.4586	2611.0000
57.4791	2639.0000
57.4996	2644.0000
57.5200	2603.0000
57.5405	2534.0000
57.5610	2583.0000
57.5815	2619.0000
57.6019	2495.0000
57.6224	2551.0000
57.6429	2540.0000
57.6634	2586.0000
57.6838	2533.0000
57.7043	2635.0000
57.7248	2583.0000
57.7453	2516.0000
57.7657	2578.0000
57.7862	2439.0000
57.8067	2616.0000
57.8272	2509.0000
57.8476	2584.0000
57.8681	2466.0000
57.8886	2550.0000
57.9091	2419.0000
57.9295	2575.0000
57.9500	2461.0000
57.9705	2506.0000
57.9910	2461.0000
58.0115	2533.0000
58.0319	2483.0000
58.0524	2501.0000
58.0729	2532.0000
58.0934	2452.0000
58.1138	2485.0000
58.1343	2542.0000
58.1548	2493.0000
58.1753	2511.0000
58.1957	2492.0000
58.2162	2485.0000
58.2367	2471.0000
58.2572	2438.0000
58.2776	2505.0000
58.2981	2480.0000
58.3186	2412.0000
58.3391	2457.0000
58.3595	2485.0000
58.3800	2362.0000
58.4005	2401.0000
58.4210	2488.0000
58.4414	2359.0000
58.4619	2432.0000
58.4824	2456.0000
58.5029	2402.0000
58.5233	2410.0000
58.5438	2439.0000
58.5643	2345.0000
58.5848	2356.0000
58.6052	2422.0000
58.6257	2378.0000
58.6462	2377.0000
58.6667	2416.0000
58.6871	2344.0000
58.7076	2367.0000
58.7281	2364.0000
58.7486	2303.0000
58.7690	2383.0000
58.7895	2324.0000
58.8100	2416.0000
58.8305	2228.0000
58.8510	2327.0000
58.8714	2354.0000
58.8919	2360.0000
58.9124	2373.0000
58.9329	2377.0000
58.9533	2284.0000
58.9738	2286.0000
58.9943	2303.0000
59.0148	2263.0000
59.0352	2312.0000
59.0557	2318.0000
59.0762	2348.0000
59.0967	2240.0000
59.1171	2212.0000
59.1376	2291.0000
59.1581	2391.0000
59.1786	2336.0000
59.1990	2335.0000
59.2195	2299.0000
59.2400	2304.0000
59.2605	2302.0000
59.2809	2285.0000
59.3014	2257.0000
59.3219	2244.0000
59.3424	2239.0000
59.3628	2313.0000
59.3833	2181.0000
59.4038	2264.0000
59.4243	2254.0000
59.4447	2253.0000
59.4652	2164.0000
59.4857	2215.0000
59.5062	2268.0000
59.5266	2226.0000
59.5471	2211.0000
59.5676	2200.0000
59.5881	2159.0000
59.6086	2148.0000
59.6290	2202.0000
59.6495	2128.0000
59.6700	2147.0000
59.6905	2114.0000
59.7109	2159.0000
59.7314	2194.0000
59.7519	2247.0000
59.7724	2181.0000
59.7928	2220.0000
59.8133	2165.0000
59.8338	2155.0000
59.8543	2110.0000
59.8747	2129.0000
59.8952	2131.0000
59.9157	2186.0000
59.9362	2113.0000
59.9566	1979.0000
59.9771	2151.0000
59.9976	2151.0000
60.0181	2108.0000
60.0385	2108.0000
60.0590	2074.0000
60.0795	2113.0000
60.1000	2132.0000
60.1204	2094.0000
60.1409	1941.0000
60.1614	2099.0000
60.1819	2008.0000
60.2023	2046.0000
60.2228	2118.0000
60.2433	2019.0000
60.2638	2103.0000
60.2842	2120.0000
60.3047	1991.0000
60.3252	2020.0000
60.3457	2067.0000
60.3661	2070.0000
60.3866	2045.0000
60.4071	2008.0000
60.4276	1968.0000
60.4481	2038.0000
60.4685	2152.0000
60.4890	1929.0000
60.5095	2103.0000
60.5300	2069.0000
60.5504	2088.0000
60.5709	1988.0000
60.5914	2017.0000
60.6119	1981.0000
60.6323	2047.0000
60.6528	1878.0000
60.6733	2063.0000
60.6938	2061.0000
60.7142	1971.0000
60.7347	2049.0000
60.7552	2053.0000
60.7757	1926.0000
60.7961	2016.0000
60.8166	2008.0000
60.8371	2008.0000
60.8576	2004.0000
60.8780	1977.0000
60.8985	1965.0000
60.9190	2033.0000
60.9395	2008.0000
60.9599	1914.0000
60.9804	1939.0000
61.0009	1987.0000
61.0214	1910.0000
61.0418	1954.0000
61.0623	2055.0000
61.0828	2007.0000
61.1033	1840.0000
61.1237	2012.0000
61.1442	1992.0000
61.1647	1947.0000
61.1852	1881.0000
61.2057	2061.0000
61.2261	1974.0000
61.2466	1922.0000
61.2671	2013.0000
61.2876	1877.0000
61.3080	1928.0000
61.3285	1925.0000
61.3490	1934.0000
61.3695	1932.0000
61.3899	2068.0000
61.4104	1966.0000
61.4309	1974.0000
61.4514	1976.0000
61.4718	2034.0000
61.4923	1917.0000
61.5128	2029.0000
61.5333	1943.0000
61.5537	2026.0000
61.5742	1895.0000
61.5947	1889.0000
61.6152	1871.0000
61.6356	1919.0000
61.6561	1955.0000
61.6766	1956.0000
61.6971	1933.0000
61.7175	1864.0000
61.7380	1955.0000
61.7585	1902.0000
61.7790	1988.0000
61.7994	1924.0000
61.8199	1969.0000
61.8404	1941.0000
61.8609	1888.0000
61.8813	1972.0000
61.9018	1954.0000
61.9223	1913.0000
61.9428	2032.0000
61.9633	1922.0000
61.9837	1910.0000
62.0042	1940.0000
62.0247	1923.0000
62.0452	1912.0000
62.0656	1981.0000
62.0861	1968.0000
62.1066	1914.0000
62.1271	1933.0000
62.1475	1868.0000
62.1680	1992.0000
62.1885	1877.0000
62.2090	1986.0000
62.2294	1919.0000
62.2499	1944.0000
62.2704	1911.0000
62.2909	1885.0000
62.3113	1863.0000
62.3318	1887.0000
62.3523	1835.0000
62.3728	1967.0000
62.3932	1916.0000
62.4137	1902.0000
62.4342	1859.0000
62.4547	1933.0000
62.4751	1951.0000
62.4956	1959.0000
62.5161	1970.0000
62.5366	2038.0000
62.5570	1924.0000
62.5775	1925.0000
62.5980	1973.0000
62.6185	1942.0000
62.6389	1891.0000
62.6594	2015.0000
62.6799	1962.0000
62.7004	1934.0000
62.7208	1931.0000
62.7413	2102.0000
62.7618	1922.0000
62.7823	1929.0000
62.8028	2021.0000
62.8232	1967.0000
62.8437	1984.0000
62.8642	2070.0000
62.8847	2027.0000
62.9051	1955.0000
62.9256	1997.0000
62.9461	1972.0000
62.9666	1963.0000
62.9870	1955.0000
63.0075	2001.0000
63.0280	1973.0000
63.0485	2023.0000
63.0689	1976.0000
63.0894	1993.0000
63.1099	1997.0000
63.1304	1994.0000
63.1508	1941.0000
63.1713	2001.0000
63.1918	1968.0000
63.2123	2034.0000
63.2327	2039.0000
63.2532	2088.0000
63.2737	2068.0000
63.2942	1930.0000
63.3146	2077.0000
63.3351	2033.0000
63.3556	2007.0000
63.3761	1994.0000
63.3965	2008.0000
63.4170	2001.0000
63.4375	2015.0000
63.4580	2057.0000
63.4784	2143.0000
63.4989	2087.0000
63.5194	1987.0000
63.5399	2103.0000
63.5604	2068.0000
63.5808	1993.0000
63.6013	2016.0000
63.6218	2082.0000
63.6423	2130.0000
63.6627	2013.0000
63.6832	2104.0000
63.7037	2012.0000
63.7242	2118.0000
63.7446	2118.0000
63.7651	2105.0000
63.7856	2115.0000
63.8061	2104.0000
63.8265	2050.0000
63.8470	2114.0000
63.8675	2139.0000
63.8880	2149.0000
63.9084	2078.0000
63.9289	2054.0000
63.9494	2114.0000
63.9699	2070.0000
63.9903	2128.0000
64.0108	2201.0000
64.0313	2158.0000
64.0518	2069.0000
64.0722	2118.0000
64.0927	2142.0000
64.1132	2141.0000
64.1337	2124.0000
64.1541	2201.0000
64.1746	2106.0000
64.1951	2091.0000
64.2156	2114.0000
64.2360	2178.0000
64.2565	2125.0000
64.2770	2157.0000
64.2975	2132.0000
64.3179	2151.0000
64.3384	2121.0000
64.3589	2173.0000
64.3794	2219.0000
64.3999	2214.0000
64.4203	2165.0000
64.4408	2168.0000
64.4613	2155.0000
64.4818	2209.0000
64.5022	2163.0000
64.5227	2191.0000
64.5432	2225.0000
64.5637	2186.0000
64.5841	2218.0000
64.6046	2209.0000
64.6251	2229.0000
64.6456	2161.0000
64.6660	2236.0000
64.6865	2236.0000
64.7070	2175.0000
64.7275	2197.0000
64.7479	2280.0000
64.7684	2243.0000
64.7889	2145.0000
64.8094	2155.0000
64.8298	2263.0000
64.8503	2267.0000
64.8708	2179.0000
64.8913	2236.0000
64.9117	2226.0000
64.9322	2268.0000
64.9527	2273.0000
64.9732	2287.0000
64.9936	2150.0000
65.0141	2294.0000
65.0346	2296.0000
65.0551	2151.0000
65.0755	2234.0000
65.0960	2284.0000
65.1165	2274.0000
65.1370	2243.0000
65.1575	2301.0000
65.1779	2324.0000
65.1984	2304.0000
65.2189	2286.0000
65.2394	2304.0000
65.2598	2274.0000
65.2803	2248.0000
65.3008	2277.0000
65.3213	2260.0000
65.3417	2344.0000
65.3622	2290.0000
65.3827	2256.0000
65.4032	2261.0000
65.4236	2358.0000
65.4441	2404.0000
65.4646	2327.0000
65.4851	2308.0000
65.5055	2381.0000
65.5260	2291.0000
65.5465	2351.0000
65.5670	2317.0000
65.5874	2343.0000
65.6079	2210.0000
65.6284	2209.0000
65.6489	2326.0000
65.6693	2298.0000
65.6898	2248.0000
65.7103	2389.0000
65.7308	2315.0000
65.7512	2302.0000
65.7717	2302.0000
65.7922	2312.0000
65.8127	2261.0000
65.8331	2251.0000
65.8536	2252.0000
65.8741	2312.0000
65.8946	2277.0000
65.9151	2279.0000
65.9355	2278.0000
65.9560	2311.0000
65.9765	2358.0000
65.9970	2257.0000
66.0174	2263.0000
66.0379	2350.0000
66.0584	2359.0000
66.0789	2279.0000
66.0993	2318.0000
66.1198	2317.0000
66.1403	2373.0000
66.1608	2300.0000
66.1812	2319.0000
66.2017	2312.0000
66.2222	2354.0000
66.2427	2226.0000
66.2631	2266.0000
66.2836	2386.0000
66.3041	2194.0000
66.3246	2247.0000
66.3450	2310.0000
66.3655	2372.0000
66.3860	2228.0000
66.4065	2237.0000
66.4269	2268.0000
66.4474	2306.0000
66.4679	2284.0000
66.4884	2418.0000
66.5088	2245.0000
66.5293	2215.0000
66.5498	2344.0000
66.5703	2238.0000
66.5907	2249.0000
66.6112	2321.0000
66.6317	2261.0000
66.6522	2264.0000
66.6726	2260.0000
66.6931	2280.0000
66.7136	2255.0000
66.7341	2313.0000
66.7546	2203.0000
66.7750	2188.0000
66.7955	2319.0000
66.8160	2238.0000
66.8365	2296.0000
66.8569	2214.0000
66.8774	2243.0000
66.8979	2233.0000
66.9184	2199.0000
66.9388	2247.0000
66.9593	2212.0000
66.9798	2258.0000
67.0003	2210.0000
67.0207	2163.0000
67.0412	2215.0000
67.0617	2253.0000
67.0822	2292.0000
67.1026	2193.0000
67.1231	2199.0000
67.1436	2133.0000
67.1641	2122.0000
67.1845	2267.0000
67.2050	2238.0000
67.2255	2149.0000
67.2460	2182.0000
67.2664	2103.0000
67.2869	2156.0000
67.3074	2211.0000
67.3279	2194.0000
67.3483	2136.0000
67.3688	2153.0000
67.3893	2164.0000
67.4098	2162.0000
67.4302	2113.0000
67.4507	2109.0000
67.4712	2161.0000
67.4917	2178.0000
67.5122	2175.0000
67.5326	2168.0000
67.5531	2098.0000
67.5736	2125.0000
67.5941	2117.0000
67.6145	2159.0000
67.6350	2159.0000
67.6555	2203.0000
67.6760	2080.0000
67.6964	2090.0000
67.7169	2132.0000
67.7374	2082.0000
67.7579	2085.0000
67.7783	2038.0000
67.7988	2138.0000
67.8193	2077.0000
67.8398	1974.0000
67.8602	2186.0000
67.8807	2049.0000
67.9012	2086.0000
67.9217	2090.0000
67.9421	2125.0000
67.9626	2087.0000
67.9831	2106.0000
68.0036	2124.0000
68.0240	2038.0000
68.0445	2020.0000
68.0650	2020.0000
68.0855	2024.0000
68.1059	2047.0000
68.1264	2009.0000
68.1469	2029.0000
68.1674	2053.0000
68.1878	2052.0000
68.2083	2089.0000
68.2288	2010.0000
68.2493	2064.0000
68.2697	1937.0000
68.2902	1976.0000
68.3107	2000.0000
68.3312	1985.0000
68.3517	1961.0000
68.3721	1989.0000
68.3926	1982.0000
68.4131	1915.0000
68.4336	2030.0000
68.4540	2007.0000
68.4745	1932.0000
68.4950	2051.0000
68.5155	1983.0000
68.5359	1972.0000
68.5564	1997.0000
68.5769	1950.0000
68.5974	2009.0000
68.6178	1911.0000
68.6383	1856.0000
68.6588	2000.0000
68.6793	1997.0000
68.6997	1989.0000
68.7202	1925.0000
68.7407	1890.0000
68.7612	2002.0000
68.7816	2016.0000
68.8021	1931.0000
68.8226	1820.0000
68.8431	1862.0000
68.8635	1867.0000
68.8840	1913.0000
68.9045	1857.0000
68.9250	1883.0000
68.9454	1934.0000
68.9659	1824.0000
68.9864	1830.0000
69.0069	1920.0000
69.0273	1927.0000
69.0478	1903.0000
69.0683	1838.0000
69.0888	1809.0000
69.1093	1857.0000
69.1297	1808.0000
69.1502	1874.0000
69.1707	1912.0000
69.1912	1841.0000
69.2116	1820.0000
69.2321	1888.0000
69.2526	1834.0000
69.2731	1800.0000
69.2935	1761.0000
69.3140	1783.0000
69.3345	1894.0000
69.3550	1807.0000
69.3754	1839.0000
69.3959	1795.0000
69.4164	1737.0000
69.4369	1850.0000
69.4573	1861.0000
69.4778	1827.0000
69.4983	1788.0000
69.5188	1827.0000
69.5392	1730.0000
69.5597	1792.0000
69.5802	1769.0000
69.6007	1821.0000
69.6211	1793.0000
69.6416	1842.0000
69.6621	1772.0000
69.6826	1759.0000
69.7030	1766.0000
69.7235	1777.0000
69.7440	1778.0000
69.7645	1800.0000
69.7849	1771.0000
69.8054	1753.0000
69.8259	1816.0000
69.8464	1748.0000
69.8669	1782.0000
69.8873	1753.0000
69.9078	1765.0000
69.9283	1753.0000
69.9488	1644.0000
69.9692	1699.0000
69.9897	1739.0000
70.0102	1679.0000
70.0307	1736.0000
70.0511	1672.0000
70.0716	1660.0000
70.0921	1699.0000
70.1126	1731.0000
70.1330	1689.0000
70.1535	1731.0000
70.1740	1703.0000
70.1945	1640.0000
70.2149	1666.0000
70.2354	1713.0000
70.2559	1711.0000
70.2764	1662.0000
70.2968	1724.0000
70.3173	1730.0000
70.3378	1675.0000
70.3583	1677.0000
70.3787	1688.0000
70.3992	1695.0000
70.4197	1640.0000
70.4402	1685.0000
70.4606	1738.0000
70.4811	1709.0000
70.5016	1729.0000
70.5221	1713.0000
70.5425	1712.0000
70.5630	1753.0000
70.5835	1643.0000
70.6040	1628.0000
70.6244	1653.0000
70.6449	1673.0000
70.6654	1710.0000
70.6859	1638.0000
70.7064	1623.0000
70.7268	1687.0000
70.7473	1610.0000
70.7678	1690.0000
70.7883	1673.0000
70.8087	1628.0000
70.8292	1684.0000
70.8497	1671.0000
70.8702	1674.0000
70.8906	1690.0000
70.9111	1664.0000
70.9316	1655.0000
70.9521	1637.0000
70.9725	1604.0000
70.9930	1665.0000
71.0135	1616.0000
71.0340	1631.0000
71.0544	1601.0000
71.0749	1599.0000
71.0954	1620.0000
71.1159	1674.0000
71.1363	1557.0000
71.1568	1610.0000
71.1773	1621.0000
71.1978	1615.0000
71.2182	1602.0000
71.2387	1642.0000
71.2592	1622.0000
71.2797	1603.0000
71.3001	1596.0000
71.3206	1568.0000
71.3411	1587.0000
71.3616	1580.0000
71.3820	1598.0000
71.4025	1560.0000
71.4230	1657.0000
71.4435	1593.0000
71.4640	1543.0000
71.4844	1631.0000
71.5049	1587.0000
71.5254	1585.0000
71.5459	1571.0000
71.5663	1593.0000
71.5868	1575.0000
71.6073	1600.0000
71.6278	1610.0000
71.6482	1572.0000
71.6687	1590.0000
71.6892	1625.0000
71.7097	1524.0000
71.7301	1572.0000
71.7506	1534.0000
71.7711	1595.0000
71.7916	1582.0000
71.8120	1540.0000
71.8325	1581.0000
71.8530	1578.0000
71.8735	1554.0000
71.8939	1639.0000
71.9144	1624.0000
71.9349	1538.0000
71.9554	1495.0000
71.9758	1539.0000
71.9963	1604.0000
72.0168	1549.0000
72.0373	1577.0000
72.0577	1626.0000
72.0782	1562.0000
72.0987	1610.0000
72.1192	1621.0000
72.1396	1532.0000
72.1601	1522.0000
72.1806	1551.0000
72.2011	1612.0000
72.2215	1504.0000
72.2420	1550.0000
72.2625	1484.0000
72.2830	1572.0000
72.3035	1554.0000
72.3239	1541.0000
72.3444	1479.0000
72.3649	1598.0000
72.3854	1453.0000
72.4058	1559.0000
72.4263	1544.0000
72.4468	1522.0000
72.4673	1538.0000
72.4877	1535.0000
72.5082	1584.0000
72.5287	1534.0000
72.5492	1495.0000
72.5696	1542.0000
72.5901	1507.0000
72.6106	1589.0000
72.6311	1531.0000
72.6515	1573.0000
72.6720	1531.0000
72.6925	1511.0000
72.7130	1470.0000
72.7334	1482.0000
72.7539	1507.0000
72.7744	1513.0000
72.7949	1602.0000
72.8153	1512.0000
72.8358	1555.0000
72.8563	1572.0000
72.8768	1593.0000
72.8972	1448.0000
72.9177	1579.0000
72.9382	1496.0000
72.9587	1431.0000
72.9791	1515.0000
72.9996	1533.0000
73.0201	1522.0000
73.0406	1469.0000
73.0611	1473.0000
73.0815	1593.0000
73.1020	1529.0000
73.1225	1511.0000
73.1430	1455.0000
73.1634	1507.0000
73.1839	1537.0000
73.2044	1458.0000
73.2249	1494.0000
73.2453	1402.0000
73.2658	1506.0000
73.2863	1550.0000
73.3068	1524.0000
73.3272	1500.0000
73.3477	1498.0000
73.3682	1472.0000
73.3887	1499.0000
73.4091	1457.0000
73.4296	1423.0000
73.4501	1471.0000
73.4706	1409.0000
73.4910	1497.0000
73.5115	1468.0000
73.5320	1517.0000
73.5525	1542.0000
73.5729	1493.0000
73.5934	1498.0000
73.6139	1533.0000
73.6344	1508.0000
73.6548	1424.0000
73.6753	1484.0000
73.6958	1480.0000
73.7163	1454.0000
73.7367	1441.0000
73.7572	1433.0000
73.7777	1449.0000
73.7982	1458.0000
73.8186	1518.0000
73.8391	1501.0000
73.8596	1443.0000
73.8801	1442.0000
73.9006	1507.0000
73.9210	1411.0000
73.9415	1478.0000
73.9620	1511.0000
73.9825	1444.0000
74.0029	1430.0000
74.0234	1408.0000
74.0439	1473.0000
74.0644	1404.0000
74.0848	1442.0000
74.1053	1371.0000
74.1258	1462.0000
74.1463	1409.0000
74.1667	1361.0000
74.1872	1402.0000
74.2077	1408.0000
74.2282	1379.0000
74.2486	1344.0000
74.2691	1409.0000
74.2896	1495.0000
74.3101	1361.0000
74.3305	1366.0000
74.3510	1394.0000
74.3715	1371.0000
74.3920	1391.0000
74.4124	1390.0000
74.4329	1445.0000
74.4534	1408.0000
74.4739	1355.0000
74.4943	1404.0000
74.5148	1432.0000
74.5353	1363.0000
74.5558	1384.0000
74.5762	1363.0000
74.5967	1426.0000
74.6172	1391.0000
74.6377	1378.0000
74.6582	1379.0000
74.6786	1320.0000
74.6991	1398.0000
74.7196	1350.0000
74.7401	1313.0000
74.7605	1323.0000
74.7810	1368.0000
74.8015	1312.0000
74.8220	1386.0000
74.8424	1323.0000
74.8629	1389.0000
74.8834	1402.0000
74.9039	1387.0000
74.9243	1334.0000
74.9448	1359.0000
74.9653	1358.0000
74.9858	1359.0000
75.0062	1305.0000
75.0267	1326.0000
75.0472	1421.0000
75.0677	1403.0000
75.0881	1295.0000
75.1086	1359.0000
75.1291	1310.0000
75.1496	1299.0000
75.1700	1315.0000
75.1905	1310.0000
75.2110	1337.0000
75.2315	1357.0000
75.2519	1353.0000
75.2724	1255.0000
75.2929	1323.0000
75.3134	1272.0000
75.3338	1350.0000
75.3543	1295.0000
75.3748	1292.0000
75.3953	1366.0000
75.4158	1344.0000
75.4362	1319.0000
75.4567	1336.0000
75.4772	1297.0000
75.4977	1328.0000
75.5181	1215.0000
75.5386	1328.0000
75.5591	1281.0000
75.5796	1369.0000
75.6000	1301.0000
75.6205	1307.0000
75.6410	1254.0000
75.6615	1222.0000
75.6819	1260.0000
75.7024	1268.0000
75.7229	1242.0000
75.7434	1333.0000
75.7638	1302.0000
75.7843	1385.0000
75.8048	1254.0000
75.8253	1266.0000
75.8457	1217.0000
75.8662	1332.0000
75.8867	1273.0000
75.9072	1282.0000
75.9276	1239.0000
75.9481	1324.0000
75.9686	1278.0000
75.9891	1221.0000
76.0095	1280.0000
76.0300	1314.0000
76.0505	1254.0000
76.0710	1261.0000
76.0914	1240.0000
76.1119	1290.0000
76.1324	1239.0000
76.1529	1286.0000
76.1733	1208.0000
76.1938	1312.0000
76.2143	1267.0000
76.2348	1215.0000
76.2553	1257.0000
76.2757	1226.0000
76.2962	1223.0000
76.3167	1255.0000
76.3372	1268.0000
76.3576	1233.0000
76.3781	1241.0000
76.3986	1268.0000
76.4191	1247.0000
76.4395	1254.0000
76.4600	1221.0000
76.4805	1229.0000
76.5010	1227.0000
76.5214	1227.0000
76.5419	1201.0000
76.5624	1196.0000
76.5829	1192.0000
76.6033	1260.0000
76.6238	1352.0000
76.6443	1237.0000
76.6648	1283.0000
76.6852	1282.0000
76.7057	1241.0000
76.7262	1233.0000
76.7467	1261.0000
76.7671	1311.0000
76.7876	1284.0000
76.8081	1237.0000
76.8286	1254.0000
76.8490	1273.0000
76.8695	1240.0000
76.8900	1226.0000
76.9105	1262.0000
76.9309	1185.0000
76.9514	1233.0000
76.9719	1177.0000
76.9924	1280.0000
77.0129	1267.0000
77.0333	1304.0000
77.0538	1233.0000
77.0743	1244.0000
77.0948	1273.0000
77.1152	1214.0000
77.1357	1255.0000
77.1562	1217.0000
77.1767	1278.0000
77.1971	1203.0000
77.2176	1193.0000
77.2381	1255.0000
77.2586	1299.0000
77.2790	1232.0000
77.2995	1229.0000
77.3200	1217.0000
77.3405	1248.0000
77.3609	1203.0000
77.3814	1177.0000
77.4019	1192.0000
77.4224	1184.0000
77.4428	1207.0000
77.4633	1258.0000
77.4838	1269.0000
77.5043	1198.0000
77.5247	1212.0000
77.5452	1210.0000
77.5657	1219.0000
77.5862	1230.0000
77.6066	1229.0000
77.6271	1173.0000
77.6476	1219.0000
77.6681	1208.0000
77.6885	1214.0000
77.7090	1195.0000
77.7295	1258.0000
77.7500	1182.0000
77.7704	1232.0000
77.7909	1225.0000
77.8114	1180.0000
77.8319	1221.0000
77.8524	1230.0000
77.8728	1202.0000
77.8933	1248.0000
77.9138	1228.0000
77.9343	1223.0000
77.9547	1164.0000
77.9752	1140.0000
77.9957	1202.0000
78.0162	1207.0000
78.0366	1223.0000
78.0571	1180.0000
78.0776	1198.0000
78.0981	1244.0000
78.1185	1226.0000
78.1390	1253.0000
78.1595	1182.0000
78.1800	1242.0000
78.2004	1232.0000
78.2209	1219.0000
78.2414	1212.0000
78.2619	1272.0000
78.2823	1181.0000
78.3028	1139.0000
78.3233	1264.0000
78.3438	1297.0000
78.3642	1239.0000
78.3847	1257.0000
78.4052	1269.0000
78.4257	1223.0000
78.4461	1259.0000
78.4666	1182.0000
78.4871	1208.0000
78.5076	1201.0000
78.5280	1223.0000
78.5485	1219.0000
78.5690	1150.0000
78.5895	1233.0000
78.6100	1205.0000
78.6304	1277.0000
78.6509	1207.0000
78.6714	1210.0000
78.6919	1210.0000
78.7123	1244.0000
78.7328	1186.0000
78.7533	1158.0000
78.7738	1204.0000
78.7942	1139.0000
78.8147	1214.0000
78.8352	1258.0000
78.8557	1200.0000
78.8761	1221.0000
78.8966	1199.0000
78.9171	1215.0000
78.9376	1310.0000
78.9580	1302.0000
78.9785	1258.0000
78.9990	1243.0000
79.0195	1197.0000
79.0399	1242.0000
79.0604	1248.0000
79.0809	1217.0000
79.1014	1244.0000
79.1218	1231.0000
79.1423	1248.0000
79.1628	1219.0000
79.1833	1255.0000
79.2037	1204.0000
79.2242	1245.0000
79.2447	1249.0000
79.2652	1202.0000
79.2856	1257.0000
79.3061	1205.0000
79.3266	1265.0000
79.3471	1286.0000
79.3676	1173.0000
79.3880	1213.0000
79.4085	1220.0000
79.4290	1227.0000
79.4495	1278.0000
79.4699	1274.0000
79.4904	1216.0000
79.5109	1209.0000
79.5314	1269.0000
79.5518	1305.0000
79.5723	1295.0000
79.5928	1329.0000
79.6133	1214.0000
79.6337	1276.0000
79.6542	1237.0000
79.6747	1283.0000
79.6952	1260.0000
79.7156	1261.0000
79.7361	1409.0000
79.7566	1313.0000
79.7771	1333.0000
79.7975	1295.0000
79.8180	1268.0000
79.8385	1264.0000
79.8590	1313.0000
79.8794	1297.0000
79.8999	1261.0000
79.9204	1294.0000
79.9409	1298.0000
79.9613	1305.0000
79.9818	1286.0000
80.0023	1361.0000
80.0228	1256.0000
80.0432	1298.0000
80.0637	1263.0000
80.0842	1279.0000
80.1047	1250.0000
80.1251	1238.0000
80.1456	1260.0000
80.1661	1289.0000
80.1866	1266.0000
80.2071	1304.0000
80.2275	1276.0000
80.2480	1287.0000
80.2685	1268.0000
80.2890	1343.0000
80.3094	1324.0000
80.3299	1271.0000
80.3504	1231.0000
80.3709	1287.0000
80.3913	1293.0000
80.4118	1261.0000
80.4323	1310.0000
80.4528	1343.0000
80.4732	1348.0000
80.4937	1344.0000
80.5142	1374.0000
80.5347	1316.0000
80.5551	1281.0000
80.5756	1378.0000
80.5961	1306.0000
80.6166	1350.0000
80.6370	1293.0000
80.6575	1338.0000
80.6780	1358.0000
80.6985	1355.0000
80.7189	1363.0000
80.7394	1313.0000
80.7599	1352.0000
80.7804	1382.0000
80.8008	1289.0000
80.8213	1383.0000
80.8418	1239.0000
80.8623	1314.0000
80.8827	1359.0000
80.9032	1319.0000
80.9237	1276.0000
80.9442	1321.0000
80.9647	1320.0000
80.9851	1321.0000
81.0056	1348.0000
81.0261	1396.0000
81.0466	1402.0000
81.0670	1375.0000
81.0875	1345.0000
81.1080	1354.0000
81.1285	1308.0000
81.1489	1361.0000
81.1694	1387.0000
81.1899	1311.0000
81.2104	1362.0000
81.2308	1374.0000
81.2513	1334.0000
81.2718	1390.0000
81.2923	1289.0000
81.3127	1415.0000
81.3332	1406.0000
81.3537	1381.0000
81.3742	1294.0000
81.3946	1359.0000
81.4151	1380.0000
81.4356	1366.0000
81.4561	1437.0000
81.4765	1372.0000
81.4970	1355.0000
81.5175	1282.0000
81.5380	1344.0000
81.5584	1400.0000
81.5789	1384.0000
81.5994	1352.0000
81.6199	1452.0000
81.6403	1406.0000
81.6608	1413.0000
81.6813	1319.0000
81.7018	1388.0000
81.7222	1411.0000
81.7427	1415.0000
81.7632	1374.0000
81.7837	1394.0000
81.8042	1388.0000
81.8246	1442.0000
81.8451	1355.0000
81.8656	1455.0000
81.8861	1410.0000
81.9065	1395.0000
81.9270	1418.0000
81.9475	1379.0000
81.9680	1440.0000
81.9884	1421.0000
82.0089	1475.0000
82.0294	1418.0000
82.0499	1396.0000
82.0703	1407.0000
82.0908	1323.0000
82.1113	1387.0000
82.1318	1422.0000
82.1522	1398.0000
82.1727	1475.0000
82.1932	1399.0000
82.2137	1426.0000
82.2341	1420.0000
82.2546	1406.0000
82.2751	1423.0000
82.2956	1391.0000
82.3160	1396.0000
82.3365	1344.0000
82.3570	1392.0000
82.3775	1422.0000
82.3979	1418.0000
82.4184	1423.0000
82.4389	1442.0000
82.4594	1445.0000
82.4798	1431.0000
82.5003	1508.0000
82.5208	1407.0000
82.5413	1405.0000
82.5618	1434.0000
82.5822	1373.0000
82.6027	1478.0000
82.6232	1463.0000
82.6437	1396.0000
82.6641	1411.0000
82.6846	1428.0000
82.7051	1463.0000
82.7256	1471.0000
82.7460	1464.0000
82.7665	1448.0000
82.7870	1404.0000
82.8075	1466.0000
82.8279	1441.0000
82.8484	1432.0000
82.8689	1456.0000
82.8894	1418.0000
82.9098	1421.0000
82.9303	1489.0000
82.9508	1450.0000
82.9713	1449.0000
82.9917	1392.0000
83.0122	1421.0000
83.0327	1457.0000
83.0532	1462.0000
83.0736	1440.0000
83.0941	1469.0000
83.1146	1480.0000
83.1351	1465.0000
83.1555	1471.0000
83.1760	1444.0000
83.1965	1471.0000
83.2170	1483.0000
83.2374	1420.0000
83.2579	1463.0000
83.2784	1402.0000
83.2989	1420.0000
83.3194	1467.0000
83.3398	1412.0000
83.3603	1439.0000
83.3808	1475.0000
83.4013	1508.0000
83.4217	1475.0000
83.4422	1465.0000
83.4627	1499.0000
83.4832	1499.0000
83.5036	1483.0000
83.5241	1416.0000
83.5446	1490.0000
83.5651	1439.0000
83.5855	1410.0000
83.6060	1446.0000
83.6265	1456.0000
83.6470	1473.0000
83.6674	1488.0000
83.6879	1475.0000
83.7084	1467.0000
83.7289	1431.0000
83.7493	1405.0000
83.7698	1517.0000
83.7903	1537.0000
83.8108	1471.0000
83.8312	1517.0000
83.8517	1543.0000
83.8722	1418.0000
83.8927	1505.0000
83.9131	1468.0000
83.9336	1549.0000
83.9541	1491.0000
83.9746	1369.0000
83.9950	1550.0000
84.0155	1499.0000
84.0360	1542.0000
84.0565	1436.0000
84.0769	1478.0000
84.0974	1475.0000
84.1179	1461.0000
84.1384	1407.0000
84.1589	1407.0000
84.1793	1534.0000
84.1998	1451.0000
84.2203	1396.0000
84.2408	1554.0000
84.2612	1493.0000
84.2817	1486.0000
84.3022	1512.0000
84.3227	1482.0000
84.3431	1420.0000
84.3636	1542.0000
84.3841	1486.0000
84.4046	1444.0000
84.4250	1454.0000
84.4455	1440.0000
84.4660	1418.0000
84.4865	1490.0000
84.5069	1529.0000
84.5274	1430.0000
84.5479	1463.0000
84.5684	1497.0000
84.5888	1485.0000
84.6093	1542.0000
84.6298	1450.0000
84.6503	1513.0000
84.6707	1428.0000
84.6912	1523.0000
84.7117	1497.0000
84.7322	1423.0000
84.7526	1441.0000
84.7731	1458.0000
84.7936	1502.0000
84.8141	1434.0000
84.8345	1471.0000
84.8550	1446.0000
84.8755	1468.0000
84.8960	1438.0000
84.9165	1456.0000
84.9369	1509.0000
84.9574	1472.0000
84.9779	1514.0000
84.9984	1450.0000
85.0188	1494.0000
85.0393	1446.0000
85.0598	1429.0000
85.0803	1556.0000
85.1007	1415.0000
85.1212	1505.0000
85.1417	1476.0000
85.1622	1530.0000
85.1826	1470.0000
85.2031	1484.0000
85.2236	1433.0000
85.2441	1533.0000
85.2645	1467.0000
85.2850	1400.0000
85.3055	1475.0000
85.3260	1485.0000
85.3464	1447.0000
85.3669	1524.0000
85.3874	1436.0000
85.4079	1499.0000
85.4283	1460.0000
85.4488	1505.0000
85.4693	1503.0000
85.4898	1455.0000
85.5102	1568.0000
85.5307	1420.0000
85.5512	1455.0000
85.5717	1480.0000
85.5921	1470.0000
85.6126	1465.0000
85.6331	1549.0000
85.6536	1552.0000
85.6740	1476.0000
85.6945	1500.0000
85.7150	1534.0000
85.7355	1427.0000
85.7560	1533.0000
85.7764	1525.0000
85.7969	1529.0000
85.8174	1409.0000
85.8379	1457.0000
85.8583	1465.0000
85.8788	1466.0000
85.8993	1491.0000
85.9198	1487.0000
85.9402	1471.0000
85.9607	1454.0000
85.9812	1471.0000
86.0017	1400.0000
86.0221	1529.0000
86.0426	1465.0000
86.0631	1466.0000
86.0836	1494.0000
86.1040	1514.0000
86.1245	1466.0000
86.1450	1496.0000
86.1655	1465.0000
86.1859	1515.0000
86.2064	1436.0000
86.2269	1523.0000
86.2474	1493.0000
86.2678	1514.0000
86.2883	1570.0000
86.3088	1607.0000
86.3293	1510.0000
86.3497	1508.0000
86.3702	1480.0000
86.3907	1540.0000
86.4112	1445.0000
86.4316	1438.0000
86.4521	1501.0000
86.4726	1498.0000
86.4931	1513.0000
86.5136	1514.0000
86.5340	1474.0000
86.5545	1517.0000
86.5750	1435.0000
86.5955	1518.0000
86.6159	1461.0000
86.6364	1476.0000
86.6569	1500.0000
86.6774	1472.0000
86.6978	1477.0000
86.7183	1481.0000
86.7388	1487.0000
86.7593	1442.0000
86.7797	1484.0000
86.8002	1472.0000
86.8207	1530.0000
86.8412	1410.0000
86.8616	1502.0000
86.8821	1504.0000
86.9026	1488.0000
86.9231	1575.0000
86.9435	1455.0000
86.9640	1493.0000
86.9845	1526.0000
87.0050	1463.0000
87.0254	1489.0000
87.0459	1427.0000
87.0664	1521.0000
87.0869	1499.0000
87.1073	1509.0000
87.1278	1530.0000
87.1483	1487.0000
87.1688	1506.0000
87.1892	1539.0000
87.2097	1519.0000
87.2302	1518.0000
87.2507	1501.0000
87.2712	1461.0000
87.2916	1423.0000
87.3121	1529.0000
87.3326	1424.0000
87.3531	1503.0000
87.3735	1442.0000
87.3940	1465.0000
87.4145	1438.0000
87.4350	1500.0000
87.4554	1458.0000
87.4759	1379.0000
87.4964	1379.0000
87.5169	1464.0000
87.5373	1494.0000
87.5578	1513.0000
87.5783	1503.0000
87.5988	1520.0000
87.6192	1512.0000
87.6397	1466.0000
87.6602	1460.0000
87.6807	1414.0000
87.7011	1428.0000
87.7216	1520.0000
87.7421	1426.0000
87.7626	1430.0000
87.7830	1459.0000
87.8035	1437.0000
87.8240	1382.0000
87.8445	1427.0000
87.8649	1438.0000
87.8854	1418.0000
87.9059	1400.0000
87.9264	1479.0000
87.9468	1489.0000
87.9673	1483.0000
87.9878	1446.0000
88.0083	1482.0000
88.0287	1458.0000
88.0492	1447.0000
88.0697	1501.0000
88.0902	1418.0000
88.1107	1508.0000
88.1311	1431.0000
88.1516	1437.0000
88.1721	1490.0000
88.1926	1426.0000
88.2130	1466.0000
88.2335	1506.0000
88.2540	1515.0000
88.2745	1452.0000
88.2949	1460.0000
88.3154	1483.0000
88.3359	1532.0000
88.3564	1472.0000
88.3768	1473.0000
88.3973	1439.0000
88.4178	1401.0000
88.4383	1389.0000
88.4587	1444.0000
88.4792	1447.0000
88.4997	1414.0000
88.5202	1394.0000
88.5406	1491.0000
88.5611	1494.0000
88.5816	1401.0000
88.6021	1510.0000
88.6225	1454.0000
88.6430	1401.0000
88.6635	1490.0000
88.6840	1503.0000
88.7044	1417.0000
88.7249	1402.0000
88.7454	1439.0000
88.7659	1433.0000
88.7863	1420.0000
88.8068	1415.0000
88.8273	1465.0000
88.8478	1377.0000
88.8683	1434.0000
88.8887	1385.0000
88.9092	1410.0000
88.9297	1469.0000
88.9502	1399.0000
88.9706	1504.0000
88.9911	1422.0000
89.0116	1415.0000
89.0321	1389.0000
89.0525	1376.0000
89.0730	1416.0000
89.0935	1421.0000
89.1140	1474.0000
89.1344	1494.0000
89.1549	1391.0000
89.1754	1431.0000
89.1959	1471.0000
89.2163	1530.0000
89.2368	1378.0000
89.2573	1446.0000
89.2778	1396.0000
89.2982	1414.0000
89.3187	1376.0000
89.3392	1425.0000
89.3597	1387.0000
89.3801	1447.0000
89.4006	1395.0000
89.4211	1380.0000
89.4416	1467.0000
89.4620	1424.0000
89.4825	1364.0000
89.5030	1367.0000
89.5235	1375.0000
89.5439	1362.0000
89.5644	1460.0000
89.5849	1437.0000
89.6054	1435.0000
89.6258	1448.0000
89.6463	1478.0000
89.6668	1411.0000
89.6873	1401.0000
89.7078	1367.0000
89.7282	1389.0000
89.7487	1432.0000
89.7692	1377.0000
89.7897	1360.0000
89.8101	1382.0000
89.8306	1383.0000
89.8511	1538.0000
89.8716	1446.0000
89.8920	1385.0000
89.9125	1399.0000
89.9330	1526.0000
89.9535	1452.0000
89.9739	1409.0000
89.9944	1407.0000
