5.0000	5920.0000
5.0205	5720.0000
5.0410	5743.0000
5.0614	5710.0000
5.0819	5760.0000
5.1024	5667.0000
5.1229	5631.0000
5.1433	5584.0000
5.1638	5593.0000
5.1843	5580.0000
5.2048	5528.0000
5.2252	5456.0000
5.2457	5365.0000
5.2662	5519.0000
5.2867	5401.0000
5.3071	5354.0000
5.3276	5163.0000
5.3481	5120.0000
5.3686	5204.0000
5.3890	5204.0000
5.4095	5191.0000
5.4300	5152.0000
5.4505	5204.0000
5.4709	5010.0000
5.4914	5113.0000
5.5119	4917.0000
5.5324	4936.0000
5.5528	4804.0000
5.5733	5017.0000
5.5938	4905.0000
5.6143	4982.0000
5.6347	4786.0000
5.6552	4678.0000
5.6757	4707.0000
5.6962	4734.0000
5.7166	4754.0000
5.7371	4714.0000
5.7576	4665.0000
5.7781	4660.0000
5.7986	4557.0000
5.8190	4453.0000
5.8395	4512.0000
5.8600	4411.0000
5.8805	4254.0000
5.9009	4445.0000
5.9214	4335.0000
5.9419	4331.0000
5.9624	4282.0000
5.9828	4132.0000
6.0033	4271.0000
6.0238	4205.0000
6.0443	4191.0000
6.0647	4154.0000
6.0852	4161.0000
6.1057	4005.0000
6.1262	4185.0000
6.1466	4031.0000
6.1671	3941.0000
6.1876	4008.0000
6.2081	3928.0000
6.2285	3850.0000
6.2490	3741.0000
6.2695	3826.0000
6.2900	3669.0000
6.3104	3765.0000
6.3309	3745.0000
6.3514	3702.0000
6.3719	3655.0000
6.3923	3623.0000
6.4128	3573.0000
6.4333	3555.0000
6.4538	3559.0000
6.4742	3593.0000
6.4947	3651.0000
6.5152	3580.0000
6.5357	3486.0000
6.5561	3404.0000
6.5766	3412.0000
6.5971	3433.0000
6.6176	3481.0000
6.6381	3411.0000
6.6585	3431.0000
6.6790	3291.0000
6.6995	3284.0000
6.7200	3202.0000
6.7404	3283.0000
6.7609	3294.0000
6.7814	3183.0000
6.8019	3080.0000
6.8223	3181.0000
6.8428	3103.0000
6.8633	3146.0000
6.8838	3042.0000
6.9042	3027.0000
6.9247	2973.0000
6.9452	2914.0000
6.9657	2929.0000
6.9861	2950.0000
7.0066	2924.0000
7.0271	2917.0000
7.0476	2911.0000
7.0680	2910.0000
7.0885	2802.0000
7.1090	2817.0000
7.1295	2783.0000
7.1499	2704.0000
7.1704	2742.0000
7.1909	2806.0000
7.2114	2643.0000
7.2318	2737.0000
7.2523	2630.0000
7.2728	2621.0000
7.2933	2676.0000
7.3137	2589.0000
7.3342	2582.0000
7.3547	2577.0000
7.3752	2607.0000
7.3957	2590.0000
7.4161	2588.0000
7.4366	2570.0000
7.4571	2531.0000
7.4776	2541.0000
7.4980	2422.0000
7.5185	2430.0000
7.5390	2480.0000
7.5595	2467.0000
7.5799	2373.0000
7.6004	2460.0000
7.6209	2397.0000
7.6414	2404.0000
7.6618	2416.0000
7.6823	2392.0000
7.7028	2454.0000
7.7233	2287.0000
7.7437	2185.0000
7.7642	2290.0000
7.7847	2338.0000
7.8052	2319.0000
7.8256	2268.0000
7.8461	2258.0000
7.8666	2164.0000
7.8871	2117.0000
7.9075	2176.0000
7.9280	2180.0000
7.9485	2187.0000
7.9690	2116.0000
7.9894	2101.0000
8.0099	2187.0000
8.0304	2185.0000
8.0509	2058.0000
8.0713	2093.0000
8.0918	2132.0000
8.1123	2033.0000
8.1328	2051.0000
8.1532	2032.0000
8.1737	2030.0000
8.1942	2067.0000
8.2147	2029.0000
8.2352	1921.0000
8.2556	1999.0000
8.2761	2076.0000
8.2966	1973.0000
8.3171	1986.0000
8.3375	1955.0000
8.3580	1974.0000
8.3785	1880.0000
8.3990	1902.0000
8.4194	1883.0000
8.4399	1943.0000
8.4604	1929.0000
8.4809	1878.0000
8.5013	1948.0000
8.5218	1892.0000
8.5423	1875.0000
8.5628	1895.0000
8.5832	1952.0000
8.6037	1794.0000
8.6242	1881.0000
8.6447	1857.0000
8.6651	1856.0000
8.6856	1880.0000
8.7061	1868.0000
8.7266	1858.0000
8.7470	1830.0000
8.7675	1735.0000
8.7880	1821.0000
8.8085	1809.0000
8.8289	1819.0000
8.8494	1841.0000
8.8699	1778.0000
8.8904	1772.0000
8.9108	1727.0000
8.9313	1851.0000
8.9518	1719.0000
8.9723	1746.0000
8.9928	1732.0000
9.0132	1715.0000
9.0337	1747.0000
9.0542	1764.0000
9.0747	1752.0000
9.0951	1642.0000
9.1156	1711.0000
9.1361	1727.0000
9.1566	1778.0000
9.1770	1707.0000
9.1975	1637.0000
9.2180	1636.0000
9.2385	1672.0000
9.2589	1727.0000
9.2794	1694.0000
9.2999	1749.0000
9.3204	1636.0000
9.3408	1647.0000
9.3613	1716.0000
9.3818	1658.0000
9.4023	1677.0000
9.4227	1657.0000
9.4432	1639.0000
9.4637	1666.0000
9.4842	1705.0000
9.5046	1726.0000
9.5251	1657.0000
9.5456	1602.0000
9.5661	1617.0000
9.5865	1612.0000
9.6070	1607.0000
9.6275	1681.0000
9.6480	1654.0000
9.6684	1573.0000
9.6889	1598.0000
9.7094	1602.0000
9.7299	1643.0000
9.7504	1680.0000
9.7708	1574.0000
9.7913	1608.0000
9.8118	1548.0000
9.8323	1539.0000
9.8527	1618.0000
9.8732	1601.0000
9.8937	1547.0000
9.9142	1626.0000
9.9346	1569.0000
9.9551	1537.0000
9.9756	1474.0000
9.9961	1471.0000
10.0165	1575.0000
10.0370	1524.0000
10.0575	1542.0000
10.0780	1598.0000
10.0984	1595.0000
10.1189	1604.0000
10.1394	1477.0000
10.1599	1541.0000
10.1803	1541.0000
10.2008	1553.0000
10.2213	1537.0000
10.2418	1545.0000
10.2622	1599.0000
10.2827	1510.0000
10.3032	1515.0000
10.3237	1556.0000
10.3441	1568.0000
10.3646	1510.0000
10.3851	1528.0000
10.4056	1430.0000
10.4260	1508.0000
10.4465	1483.0000
10.4670	1502.0000
10.4875	1507.0000
10.5079	1548.0000
10.5284	1520.0000
10.5489	1526.0000
10.5694	1486.0000
10.5899	1512.0000
10.6103	1606.0000
10.6308	1487.0000
10.6513	1522.0000
10.6718	1448.0000
10.6922	1544.0000
10.7127	1497.0000
10.7332	1498.0000
10.7537	1491.0000
10.7741	1406.0000
10.7946	1423.0000
10.8151	1519.0000
10.8356	1503.0000
10.8560	1529.0000
10.8765	1434.0000
10.8970	1437.0000
10.9175	1456.0000
10.9379	1430.0000
10.9584	1502.0000
10.9789	1470.0000
10.9994	1554.0000
11.0198	1494.0000
11.0403	1394.0000
11.0608	1533.0000
11.0813	1479.0000
11.1017	1450.0000
11.1222	1412.0000
11.1427	1500.0000
11.1632	1448.0000
11.1836	1474.0000
11.2041	1478.0000
11.2246	1472.0000
11.2451	1424.0000
11.2655	1469.0000
11.2860	1395.0000
11.3065	1477.0000
11.3270	1432.0000
11.3475	1396.0000
11.3679	1413.0000
11.3884	1405.0000
11.4089	1415.0000
11.4294	1447.0000
11.4498	1415.0000
11.4703	1437.0000
11.4908	1348.0000
11.5113	1434.0000
11.5317	1448.0000
11.5522	1434.0000
11.5727	1457.0000
11.5932	1463.0000
11.6136	1416.0000
11.6341	1452.0000
11.6546	1427.0000
11.6751	1370.0000
11.6955	1408.0000
11.7160	1387.0000
11.7365	1450.0000
11.7570	1431.0000
11.7774	1407.0000
11.7979	1462.0000
11.8184	1462.0000
11.8389	1413.0000
11.8593	1432.0000
11.8798	1408.0000
11.9003	1410.0000
11.9208	1398.0000
11.9412	1317.0000
11.9617	1335.0000
11.9822	1409.0000
12.0027	1382.0000
12.0231	1396.0000
12.0436	1419.0000
12.0641	1388.0000
12.0846	1376.0000
12.1050	1399.0000
12.1255	1393.0000
12.1460	1423.0000
12.1665	1363.0000
12.1870	1331.0000
12.2074	1397.0000
12.2279	1325.0000
12.2484	1373.0000
12.2689	1352.0000
12.2893	1405.0000
12.3098	1375.0000
12.3303	1368.0000
12.3508	1397.0000
12.3712	1325.0000
12.3917	1416.0000
12.4122	1404.0000
12.4327	1374.0000
12.4531	1405.0000
12.4736	1292.0000
12.4941	1362.0000
12.5146	1332.0000
12.5350	1392.0000
12.5555	1352.0000
12.5760	1319.0000
12.5965	1362.0000
12.6169	1327.0000
12.6374	1327.0000
12.6579	1376.0000
12.6784	1430.0000
12.6988	1296.0000
12.7193	1404.0000
12.7398	1290.0000
12.7603	1333.0000
12.7807	1354.0000
12.8012	1315.0000
12.8217	1299.0000
12.8422	1328.0000
12.8626	1381.0000
12.8831	1334.0000
12.9036	1307.0000
12.9241	1277.0000
12.9446	1295.0000
12.9650	1273.0000
12.9855	1301.0000
13.0060	1342.0000
13.0265	1314.0000
13.0469	1353.0000
13.0674	1301.0000
13.0879	1290.0000
13.1084	1206.0000
13.1288	1220.0000
13.1493	1310.0000
13.1698	1353.0000
13.1903	1260.0000
13.2107	1332.0000
13.2312	1274.0000
13.2517	1311.0000
13.2722	1283.0000
13.2926	1296.0000
13.3131	1227.0000
13.3336	1331.0000
13.3541	1232.0000
13.3745	1271.0000
13.3950	1264.0000
13.4155	1289.0000
13.4360	1287.0000
13.4564	1198.0000
13.4769	1269.0000
13.4974	1221.0000
13.5179	1310.0000
13.5383	1261.0000
13.5588	1254.0000
13.5793	1272.0000
13.5998	1285.0000
13.6202	1238.0000
13.6407	1249.0000
13.6612	1310.0000
13.6817	1222.0000
13.7022	1247.0000
13.7226	1284.0000
13.7431	1140.0000
13.7636	1235.0000
13.7841	1277.0000
13.8045	1273.0000
13.8250	1263.0000
13.8455	1275.0000
13.8660	1253.0000
13.8864	1243.0000
13.9069	1153.0000
13.9274	1261.0000
13.9479	1217.0000
13.9683	1232.0000
13.9888	1196.0000
14.0093	1220.0000
14.0298	1194.0000
14.0502	1188.0000
14.0707	1164.0000
14.0912	1207.0000
14.1117	1238.0000
14.1321	1198.0000
14.1526	1157.0000
14.1731	1205.0000
14.1936	1185.0000
14.2140	1216.0000
14.2345	1184.0000
14.2550	1152.0000
14.2755	1172.0000
14.2959	1198.0000
14.3164	1118.0000
14.3369	1217.0000
14.3574	1205.0000
14.3778	1173.0000
14.3983	1171.0000
14.4188	1150.0000
14.4393	1231.0000
14.4597	1135.0000
14.4802	1199.0000
14.5007	1211.0000
14.5212	1215.0000
14.5417	1154.0000
14.5621	1194.0000
14.5826	1115.0000
14.6031	1175.0000
14.6236	1110.0000
14.6440	1174.0000
14.6645	1132.0000
14.6850	1167.0000
14.7055	1137.0000
14.7259	1223.0000
14.7464	1166.0000
14.7669	1194.0000
14.7874	1105.0000
14.8078	1105.0000
14.8283	1123.0000
14.8488	1154.0000
14.8693	1154.0000
14.8897	1124.0000
14.9102	1199.0000
14.9307	1190.0000
14.9512	1149.0000
14.9716	1087.0000
14.9921	1146.0000
15.0126	1093.0000
15.0331	1158.0000
15.0535	1087.0000
15.0740	1160.0000
15.0945	1189.0000
15.1150	1093.0000
15.1354	1134.0000
15.1559	1114.0000
15.1764	1160.0000
15.1969	1122.0000
15.2173	1110.0000
15.2378	1137.0000
15.2583	1024.0000
15.2788	1114.0000
15.2993	1193.0000
15.3197	1078.0000
15.3402	1167.0000
15.3607	1119.0000
15.3812	1114.0000
15.4016	1086.0000
15.4221	1103.0000
15.4426	1117.0000
15.4631	1106.0000
15.4835	1126.0000
15.5040	1087.0000
15.5245	1166.0000
15.5450	1165.0000
15.5654	1180.0000
15.5859	1102.0000
15.6064	1120.0000
15.6269	1150.0000
15.6473	1162.0000
15.6678	1153.0000
15.6883	1165.0000
15.7088	1114.0000
15.7292	1100.0000
15.7497	1126.0000
15.7702	1109.0000
15.7907	1111.0000
15.8111	1104.0000
15.8316	1142.0000
15.8521	1090.0000
15.8726	1173.0000
15.8930	1121.0000
15.9135	1101.0000
15.9340	1112.0000
15.9545	1090.0000
15.9749	1093.0000
15.9954	1097.0000
16.0159	1123.0000
16.0364	1115.0000
16.0568	1087.0000
16.0773	1105.0000
16.0978	1073.0000
16.1183	1118.0000
16.1388	1037.0000
16.1592	1103.0000
16.1797	1154.0000
16.2002	1025.0000
16.2207	1083.0000
16.2411	1146.0000
16.2616	1106.0000
16.2821	1145.0000
16.3026	1088.0000
16.3230	1105.0000
16.3435	1040.0000
16.3640	1141.0000
16.3845	1092.0000
16.4049	1115.0000
16.4254	1102.0000
16.4459	1042.0000
16.4664	1131.0000
16.4868	1140.0000
16.5073	1077.0000
16.5278	1120.0000
16.5483	1170.0000
16.5687	1096.0000
16.5892	1057.0000
16.6097	1133.0000
16.6302	1150.0000
16.6506	1059.0000
16.6711	1135.0000
16.6916	1177.0000
16.7121	1070.0000
16.7325	1159.0000
16.7530	1116.0000
16.7735	1116.0000
16.7940	1085.0000
16.8144	1118.0000
16.8349	1092.0000
16.8554	1130.0000
16.8759	1106.0000
16.8964	1114.0000
16.9168	1081.0000
16.9373	1110.0000
16.9578	1123.0000
16.9783	1077.0000
16.9987	1167.0000
17.0192	1164.0000
17.0397	1166.0000
17.0602	1129.0000
17.0806	1180.0000
17.1011	1148.0000
17.1216	1104.0000
17.1421	1102.0000
17.1625	1081.0000
17.1830	1141.0000
17.2035	1134.0000
17.2240	1104.0000
17.2444	1097.0000
17.2649	1144.0000
17.2854	1165.0000
17.3059	1092.0000
17.3263	1115.0000
17.3468	1172.0000
17.3673	1056.0000
17.3878	1154.0000
17.4082	1102.0000
17.4287	1086.0000
17.4492	1158.0000
17.4697	1110.0000
17.4901	1172.0000
17.5106	1132.0000
17.5311	1117.0000
17.5516	1116.0000
17.5720	1120.0000
17.5925	1124.0000
17.6130	1143.0000
17.6335	1097.0000
17.6539	1122.0000
17.6744	1132.0000
17.6949	1107.0000
17.7154	1181.0000
17.7359	1139.0000
17.7563	1114.0000
17.7768	1153.0000
17.7973	1123.0000
17.8178	1119.0000
17.8382	1163.0000
17.8587	1175.0000
17.8792	1173.0000
17.8997	1128.0000
17.9201	1185.0000
17.9406	1139.0000
17.9611	1178.0000
17.9816	1099.0000
18.0020	1090.0000
18.0225	1114.0000
18.0430	1126.0000
18.0635	1113.0000
18.0839	1155.0000
18.1044	1141.0000
18.1249	1164.0000
18.1454	1182.0000
18.1658	1112.0000
18.1863	1113.0000
18.2068	1099.0000
18.2273	1125.0000
18.2477	1151.0000
18.2682	1160.0000
18.2887	1136.0000
18.3092	1077.0000
18.3296	1085.0000
18.3501	1152.0000
18.3706	1147.0000
18.3911	1113.0000
18.4115	1157.0000
18.4320	1184.0000
18.4525	1127.0000
18.4730	1120.0000
18.4935	1183.0000
18.5139	1167.0000
18.5344	1125.0000
18.5549	1180.0000
18.5754	1138.0000
18.5958	1118.0000
18.6163	1107.0000
18.6368	1144.0000
18.6573	1104.0000
18.6777	1158.0000
18.6982	1073.0000
18.7187	1167.0000
18.7392	1148.0000
18.7596	1130.0000
18.7801	1199.0000
18.8006	1204.0000
18.8211	1153.0000
18.8415	1111.0000
18.8620	1221.0000
18.8825	1176.0000
18.9030	1186.0000
18.9234	1147.0000
18.9439	1152.0000
18.9644	1147.0000
18.9849	1109.0000
19.0053	1217.0000
19.0258	1226.0000
19.0463	1112.0000
19.0668	1173.0000
19.0872	1172.0000
19.1077	1166.0000
19.1282	1208.0000
19.1487	1194.0000
19.1691	1176.0000
19.1896	1157.0000
19.2101	1233.0000
19.2306	1222.0000
19.2511	1153.0000
19.2715	1234.0000
19.2920	1172.0000
19.3125	1125.0000
19.3330	1153.0000
19.3534	1215.0000
19.3739	1197.0000
19.3944	1160.0000
19.4149	1158.0000
19.4353	1230.0000
19.4558	1151.0000
19.4763	1160.0000
19.4968	1183.0000
19.5172	1250.0000
19.5377	1208.0000
19.5582	1217.0000
19.5787	1238.0000
19.5991	1179.0000
19.6196	1168.0000
19.6401	1228.0000
19.6606	1271.0000
19.6810	1244.0000
19.7015	1214.0000
19.7220	1197.0000
19.7425	1199.0000
19.7629	1182.0000
19.7834	1205.0000
19.8039	1164.0000
19.8244	1265.0000
19.8448	1206.0000
19.8653	1198.0000
19.8858	1198.0000
19.9063	1224.0000
19.9267	1243.0000
19.9472	1248.0000
19.9677	1201.0000
19.9882	1238.0000
20.0086	1236.0000
20.0291	1257.0000
20.0496	1266.0000
20.0701	1243.0000
20.0906	1218.0000
20.1110	1178.0000
20.1315	1216.0000
20.1520	1249.0000
20.1725	1243.0000
20.1929	1284.0000
20.2134	1230.0000
20.2339	1219.0000
20.2544	1276.0000
20.2748	1272.0000
20.2953	1249.0000
20.3158	1286.0000
20.3363	1312.0000
20.3567	1282.0000
20.3772	1262.0000
20.3977	1230.0000
20.4182	1262.0000
20.4386	1240.0000
20.4591	1267.0000
20.4796	1267.0000
20.5001	1312.0000
20.5205	1279.0000
20.5410	1233.0000
20.5615	1317.0000
20.5820	1248.0000
20.6024	1238.0000
20.6229	1298.0000
20.6434	1314.0000
20.6639	1332.0000
20.6843	1233.0000
20.7048	1232.0000
20.7253	1338.0000
20.7458	1285.0000
20.7662	1270.0000
20.7867	1268.0000
20.8072	1324.0000
20.8277	1342.0000
20.8482	1273.0000
20.8686	1329.0000
20.8891	1259.0000
20.9096	1289.0000
20.9301	1283.0000
20.9505	1300.0000
20.9710	1300.0000
20.9915	1328.0000
21.0120	1233.0000
21.0324	1312.0000
21.0529	1285.0000
21.0734	1308.0000
21.0939	1312.0000
21.1143	1384.0000
21.1348	1314.0000
21.1553	1325.0000
21.1758	1313.0000
21.1962	1351.0000
21.2167	1317.0000
21.2372	1349.0000
21.2577	1338.0000
21.2781	1353.0000
21.2986	1316.0000
21.3191	1335.0000
21.3396	1347.0000
21.3600	1325.0000
21.3805	1394.0000
21.4010	1290.0000
21.4215	1419.0000
21.4419	1337.0000
21.4624	1320.0000
21.4829	1358.0000
21.5034	1304.0000
21.5238	1355.0000
21.5443	1234.0000
21.5648	1346.0000
21.5853	1362.0000
21.6057	1335.0000
21.6262	1369.0000
21.6467	1405.0000
21.6672	1381.0000
21.6877	1418.0000
21.7081	1423.0000
21.7286	1395.0000
21.7491	1428.0000
21.7696	1441.0000
21.7900	1389.0000
21.8105	1439.0000
21.8310	1467.0000
21.8515	1401.0000
21.8719	1342.0000
21.8924	1464.0000
21.9129	1367.0000
21.9334	1461.0000
21.9538	1413.0000
21.9743	1415.0000
21.9948	1444.0000
22.0153	1414.0000
22.0357	1402.0000
22.0562	1371.0000
22.0767	1384.0000
22.0972	1390.0000
22.1176	1390.0000
22.1381	1421.0000
22.1586	1424.0000
22.1791	1363.0000
22.1995	1376.0000
22.2200	1428.0000
22.2405	1410.0000
22.2610	1430.0000
22.2814	1479.0000
22.3019	1414.0000
22.3224	1432.0000
22.3429	1368.0000
22.3633	1506.0000
22.3838	1431.0000
22.4043	1416.0000
22.4248	1422.0000
22.4453	1425.0000
22.4657	1404.0000
22.4862	1452.0000
22.5067	1479.0000
22.5272	1530.0000
22.5476	1511.0000
22.5681	1476.0000
22.5886	1423.0000
22.6091	1392.0000
22.6295	1476.0000
22.6500	1515.0000
22.6705	1499.0000
22.6910	1478.0000
22.7114	1470.0000
22.7319	1481.0000
22.7524	1491.0000
22.7729	1511.0000
22.7933	1442.0000
22.8138	1549.0000
22.8343	1451.0000
22.8548	1470.0000
22.8752	1482.0000
22.8957	1535.0000
22.9162	1522.0000
22.9367	1434.0000
22.9571	1496.0000
22.9776	1489.0000
22.9981	1450.0000
23.0186	1564.0000
23.0390	1531.0000
23.0595	1513.0000
23.0800	1608.0000
23.1005	1512.0000
23.1209	1545.0000
23.1414	1545.0000
23.1619	1477.0000
23.1824	1544.0000
23.2029	1514.0000
23.2233	1548.0000
23.2438	1545.0000
23.2643	1564.0000
23.2848	1598.0000
23.3052	1536.0000
23.3257	1565.0000
23.3462	1544.0000
23.3667	1574.0000
23.3871	1488.0000
23.4076	1582.0000
23.4281	1565.0000
23.4486	1603.0000
23.4690	1599.0000
23.4895	1625.0000
23.5100	1605.0000
23.5305	1628.0000
23.5509	1607.0000
23.5714	1604.0000
23.5919	1609.0000
23.6124	1556.0000
23.6328	1540.0000
23.6533	1558.0000
23.6738	1555.0000
23.6943	1623.0000
23.7147	1586.0000
23.7352	1654.0000
23.7557	1628.0000
23.7762	1613.0000
23.7966	1604.0000
23.8171	1663.0000
23.8376	1590.0000
23.8581	1579.0000
23.8785	1654.0000
23.8990	1673.0000
23.9195	1656.0000
23.9400	1617.0000
23.9604	1731.0000
23.9809	1592.0000
24.0014	1674.0000
24.0219	1686.0000
24.0424	1645.0000
24.0628	1737.0000
24.0833	1653.0000
24.1038	1743.0000
24.1243	1729.0000
24.1447	1776.0000
24.1652	1655.0000
24.1857	1700.0000
24.2062	1693.0000
24.2266	1739.0000
24.2471	1666.0000
24.2676	1720.0000
24.2881	1748.0000
24.3085	1721.0000
24.3290	1689.0000
24.3495	1707.0000
24.3700	1732.0000
24.3904	1745.0000
24.4109	1790.0000
24.4314	1749.0000
24.4519	1709.0000
24.4723	1678.0000
24.4928	1708.0000
24.5133	1729.0000
24.5338	1813.0000
24.5542	1766.0000
24.5747	1760.0000
24.5952	1760.0000
24.6157	1736.0000
24.6361	1797.0000
24.6566	1756.0000
24.6771	1787.0000
24.6976	1727.0000
24.7180	1835.0000
24.7385	1757.0000
24.7590	1833.0000
24.7795	1832.0000
24.8000	1794.0000
24.8204	1784.0000
24.8409	1837.0000
24.8614	1807.0000
24.8819	1723.0000
24.9023	1869.0000
24.9228	1766.0000
24.9433	1862.0000
24.9638	1840.0000
24.9842	1849.0000
25.0047	1806.0000
25.0252	1876.0000
25.0457	1869.0000
25.0661	1875.0000
25.0866	1811.0000
25.1071	1886.0000
25.1276	1840.0000
25.1480	1915.0000
25.1685	1934.0000
25.1890	1922.0000
25.2095	1821.0000
25.2299	1852.0000
25.2504	1942.0000
25.2709	1941.0000
25.2914	2046.0000
25.3118	1966.0000
25.3323	1884.0000
25.3528	1948.0000
25.3733	1972.0000
25.3937	1901.0000
25.4142	1972.0000
25.4347	1953.0000
25.4552	1970.0000
25.4756	1904.0000
25.4961	1940.0000
25.5166	1946.0000
25.5371	1949.0000
25.5575	1990.0000
25.5780	1894.0000
25.5985	1973.0000
25.6190	2039.0000
25.6395	1995.0000
25.6599	2029.0000
25.6804	2031.0000
25.7009	2012.0000
25.7214	1976.0000
25.7418	1970.0000
25.7623	1982.0000
25.7828	2035.0000
25.8033	2016.0000
25.8237	2049.0000
25.8442	1981.0000
25.8647	2047.0000
25.8852	2019.0000
25.9056	2125.0000
25.9261	2046.0000
25.9466	2063.0000
25.9671	2027.0000
25.9875	2071.0000
26.0080	2064.0000
26.0285	2110.0000
26.0490	2068.0000
26.0694	2153.0000
26.0899	2104.0000
26.1104	2073.0000
26.1309	2060.0000
26.1513	2097.0000
26.1718	2080.0000
26.1923	2122.0000
26.2128	2097.0000
26.2332	2026.0000
26.2537	2108.0000
26.2742	2084.0000
26.2947	2108.0000
26.3151	2102.0000
26.3356	2021.0000
26.3561	2137.0000
26.3766	2197.0000
26.3971	2216.0000
26.4175	2171.0000
26.4380	2178.0000
26.4585	2154.0000
26.4790	2190.0000
26.4994	2112.0000
26.5199	2152.0000
26.5404	2178.0000
26.5609	2200.0000
26.5813	2173.0000
26.6018	2230.0000
26.6223	2217.0000
26.6428	2228.0000
26.6632	2216.0000
26.6837	2148.0000
26.7042	2230.0000
26.7247	2300.0000
26.7451	2282.0000
26.7656	2185.0000
26.7861	2161.0000
26.8066	2273.0000
26.8270	2299.0000
26.8475	2302.0000
26.8680	2233.0000
26.8885	2261.0000
26.9089	2310.0000
26.9294	2352.0000
26.9499	2159.0000
26.9704	2259.0000
26.9908	2210.0000
27.0113	2229.0000
27.0318	2323.0000
27.0523	2273.0000
27.0727	2327.0000
27.0932	2353.0000
27.1137	2355.0000
27.1342	2291.0000
27.1547	2401.0000
27.1751	2345.0000
27.1956	2307.0000
27.2161	2254.0000
27.2366	2323.0000
27.2570	2378.0000
27.2775	2396.0000
27.2980	2372.0000
27.3185	2353.0000
27.3389	2357.0000
27.3594	2384.0000
27.3799	2372.0000
27.4004	2327.0000
27.4208	2314.0000
27.4413	2407.0000
27.4618	2344.0000
27.4823	2444.0000
27.5027	2338.0000
27.5232	2407.0000
27.5437	2398.0000
27.5642	2454.0000
27.5846	2416.0000
27.6051	2369.0000
27.6256	2468.0000
27.6461	2445.0000
27.6665	2363.0000
27.6870	2444.0000
27.7075	2526.0000
27.7280	2549.0000
27.7484	2410.0000
27.7689	2503.0000
27.7894	2509.0000
27.8099	2410.0000
27.8303	2424.0000
27.8508	2449.0000
27.8713	2465.0000
27.8918	2421.0000
27.9122	2541.0000
27.9327	2478.0000
27.9532	2483.0000
27.9737	2559.0000
27.9942	2596.0000
28.0146	2528.0000
28.0351	2537.0000
28.0556	2584.0000
28.0761	2624.0000
28.0965	2529.0000
28.1170	2575.0000
28.1375	2549.0000
28.1580	2550.0000
28.1784	2611.0000
28.1989	2529.0000
28.2194	2507.0000
28.2399	2553.0000
28.2603	2627.0000
28.2808	2533.0000
28.3013	2620.0000
28.3218	2601.0000
28.3422	2590.0000
28.3627	2608.0000
28.3832	2579.0000
28.4037	2538.0000
28.4241	2569.0000
28.4446	2618.0000
28.4651	2569.0000
28.4856	2612.0000
28.5060	2708.0000
28.5265	2693.0000
28.5470	2617.0000
28.5675	2622.0000
28.5879	2624.0000
28.6084	2574.0000
28.6289	2650.0000
28.6494	2646.0000
28.6698	2752.0000
28.6903	2661.0000
28.7108	2619.0000
28.7313	2653.0000
28.7518	2555.0000
28.7722	2606.0000
28.7927	2567.0000
28.8132	2607.0000
28.8337	2717.0000
28.8541	2587.0000
28.8746	2747.0000
28.8951	2523.0000
28.9156	2701.0000
28.9360	2653.0000
28.9565	2610.0000
28.9770	2661.0000
28.9975	2706.0000
29.0179	2698.0000
29.0384	2656.0000
29.0589	2566.0000
29.0794	2652.0000
29.0998	2721.0000
29.1203	2615.0000
29.1408	2584.0000
29.1613	2635.0000
29.1817	2688.0000
29.2022	2737.0000
29.2227	2680.0000
29.2432	2677.0000
29.2636	2650.0000
29.2841	2741.0000
29.3046	2648.0000
29.3251	2574.0000
29.3455	2667.0000
29.3660	2759.0000
29.3865	2701.0000
29.4070	2727.0000
29.4274	2769.0000
29.4479	2764.0000
29.4684	2864.0000
29.4889	2689.0000
29.5093	2765.0000
29.5298	2689.0000
29.5503	2717.0000
29.5708	2650.0000
29.5913	2713.0000
29.6117	2726.0000
29.6322	2777.0000
29.6527	2758.0000
29.6732	2853.0000
29.6936	2834.0000
29.7141	2879.0000
29.7346	2686.0000
29.7551	2729.0000
29.7755	2856.0000
29.7960	2834.0000
29.8165	2886.0000
29.8370	2872.0000
29.8574	2772.0000
29.8779	2782.0000
29.8984	2814.0000
29.9189	2763.0000
29.9393	2748.0000
29.9598	2751.0000
29.9803	2856.0000
30.0008	2731.0000
30.0212	2769.0000
30.0417	2750.0000
30.0622	2726.0000
30.0827	2828.0000
30.1031	2838.0000
30.1236	2757.0000
30.1441	2852.0000
30.1646	2735.0000
30.1850	2837.0000
30.2055	2892.0000
30.2260	2849.0000
30.2465	2859.0000
30.2669	2838.0000
30.2874	2838.0000
30.3079	2810.0000
30.3284	2891.0000
30.3489	2830.0000
30.3693	2802.0000
30.3898	2831.0000
30.4103	2874.0000
30.4308	2842.0000
30.4512	2855.0000
30.4717	2806.0000
30.4922	2837.0000
30.5127	2932.0000
30.5331	2898.0000
30.5536	2852.0000
30.5741	2935.0000
30.5946	2792.0000
30.6150	2871.0000
30.6355	2942.0000
30.6560	2811.0000
30.6765	2869.0000
30.6969	2898.0000
30.7174	2909.0000
30.7379	2870.0000
30.7584	2887.0000
30.7788	2821.0000
30.7993	2999.0000
30.8198	2950.0000
30.8403	2952.0000
30.8607	3004.0000
30.8812	2949.0000
30.9017	3012.0000
30.9222	3055.0000
30.9426	3001.0000
30.9631	2941.0000
30.9836	2987.0000
31.0041	2894.0000
31.0245	2990.0000
31.0450	2943.0000
31.0655	2985.0000
31.0860	2992.0000
31.1065	3138.0000
31.1269	3063.0000
31.1474	3139.0000
31.1679	2944.0000
31.1884	3002.0000
31.2088	3041.0000
31.2293	2942.0000
31.2498	3037.0000
31.2703	3022.0000
31.2907	3097.0000
31.3112	2978.0000
31.3317	3042.0000
31.3522	3048.0000
31.3726	3071.0000
31.3931	3112.0000
31.4136	3093.0000
31.4341	3074.0000
31.4545	3023.0000
31.4750	3082.0000
31.4955	3132.0000
31.5160	3069.0000
31.5364	3196.0000
31.5569	3173.0000
31.5774	3052.0000
31.5979	3105.0000
31.6183	3214.0000
31.6388	3260.0000
31.6593	3213.0000
31.6798	3243.0000
31.7002	3254.0000
31.7207	3201.0000
31.7412	3191.0000
31.7617	3218.0000
31.7821	3215.0000
31.8026	3229.0000
31.8231	3201.0000
31.8436	3318.0000
31.8640	3243.0000
31.8845	3163.0000
31.9050	3291.0000
31.9255	3197.0000
31.9460	3277.0000
31.9664	3180.0000
31.9869	3251.0000
32.0074	3236.0000
32.0279	3275.0000
32.0483	3322.0000
32.0688	3345.0000
32.0893	3367.0000
32.1098	3213.0000
32.1302	3380.0000
32.1507	3291.0000
32.1712	3362.0000
32.1917	3255.0000
32.2121	3324.0000
32.2326	3314.0000
32.2531	3323.0000
32.2736	3328.0000
32.2940	3391.0000
32.3145	3403.0000
32.3350	3432.0000
32.3555	3408.0000
32.3759	3381.0000
32.3964	3288.0000
32.4169	3426.0000
32.4374	3381.0000
32.4578	3485.0000
32.4783	3452.0000
32.4988	3449.0000
32.5193	3482.0000
32.5397	3612.0000
32.5602	3414.0000
32.5807	3458.0000
32.6012	3542.0000
32.6216	3427.0000
32.6421	3496.0000
32.6626	3432.0000
32.6831	3425.0000
32.7036	3515.0000
32.7240	3536.0000
32.7445	3485.0000
32.7650	3572.0000
32.7855	3592.0000
32.8059	3638.0000
32.8264	3435.0000
32.8469	3515.0000
32.8674	3625.0000
32.8878	3542.0000
32.9083	3478.0000
32.9288	3571.0000
32.9493	3638.0000
32.9697	3506.0000
32.9902	3599.0000
33.0107	3705.0000
33.0312	3628.0000
33.0516	3684.0000
33.0721	3633.0000
33.0926	3571.0000
33.1131	3731.0000
33.1335	3704.0000
33.1540	3676.0000
33.1745	3639.0000
33.1950	3705.0000
33.2154	3808.0000
33.2359	3661.0000
33.2564	3735.0000
33.2769	3629.0000
33.2973	3710.0000
33.3178	3770.0000
33.3383	3706.0000
33.3588	3728.0000
33.3792	3825.0000
33.3997	3796.0000
33.4202	3846.0000
33.4407	3771.0000
33.4611	3783.0000
33.4816	3900.0000
33.5021	3777.0000
33.5226	3847.0000
33.5431	3681.0000
33.5635	3781.0000
33.5840	3804.0000
33.6045	3739.0000
33.6250	3855.0000
33.6454	3765.0000
33.6659	3796.0000
33.6864	3881.0000
33.7069	3806.0000
33.7273	3931.0000
33.7478	3971.0000
33.7683	3781.0000
33.7888	3817.0000
33.8092	3810.0000
33.8297	3803.0000
33.8502	3896.0000
33.8707	3884.0000
33.8911	3861.0000
33.9116	3905.0000
33.9321	3975.0000
33.9526	3843.0000
33.9730	3879.0000
33.9935	3856.0000
34.0140	3883.0000
34.0345	3842.0000
34.0549	3900.0000
34.0754	3944.0000
34.0959	3858.0000
34.1164	3835.0000
34.1368	3846.0000
34.1573	3848.0000
34.1778	3884.0000
34.1983	3945.0000
34.2187	3851.0000
34.2392	3871.0000
34.2597	3885.0000
34.2802	3742.0000
34.3007	3826.0000
34.3211	3882.0000
34.3416	3868.0000
34.3621	3805.0000
34.3826	3842.0000
34.4030	3951.0000
34.4235	3932.0000
34.4440	3949.0000
34.4645	3709.0000
34.4849	3778.0000
34.5054	3790.0000
34.5259	3844.0000
34.5464	3860.0000
34.5668	3723.0000
34.5873	3770.0000
34.6078	3811.0000
34.6283	3911.0000
34.6487	3758.0000
34.6692	3728.0000
34.6897	3839.0000
34.7102	3718.0000
34.7306	3788.0000
34.7511	3695.0000
34.7716	3745.0000
34.7921	3851.0000
34.8125	3873.0000
34.8330	3670.0000
34.8535	3790.0000
34.8740	3766.0000
34.8944	3878.0000
34.9149	3686.0000
34.9354	3714.0000
34.9559	3728.0000
34.9763	3638.0000
34.9968	3857.0000
35.0173	3700.0000
35.0378	3664.0000
35.0582	3750.0000
35.0787	3760.0000
35.0992	3662.0000
35.1197	3664.0000
35.1402	3576.0000
35.1606	3715.0000
35.1811	3699.0000
35.2016	3589.0000
35.2221	3739.0000
35.2425	3661.0000
35.2630	3715.0000
35.2835	3694.0000
35.3040	3640.0000
35.3244	3600.0000
35.3449	3582.0000
35.3654	3482.0000
35.3859	3584.0000
35.4063	3518.0000
35.4268	3533.0000
35.4473	3517.0000
35.4678	3462.0000
35.4882	3552.0000
35.5087	3510.0000
35.5292	3561.0000
35.5497	3550.0000
35.5701	3503.0000
35.5906	3451.0000
35.6111	3457.0000
35.6316	3469.0000
35.6520	3528.0000
35.6725	3519.0000
35.6930	3341.0000
35.7135	3347.0000
35.7339	3440.0000
35.7544	3314.0000
35.7749	3353.0000
35.7954	3321.0000
35.8158	3367.0000
35.8363	3309.0000
35.8568	3304.0000
35.8773	3334.0000
35.8978	3319.0000
35.9182	3263.0000
35.9387	3286.0000
35.9592	3302.0000
35.9797	3218.0000
36.0001	3289.0000
36.0206	3202.0000
36.0411	3161.0000
36.0616	3310.0000
36.0820	3127.0000
36.1025	3204.0000
36.1230	3211.0000
36.1435	3155.0000
36.1639	3033.0000
36.1844	3238.0000
36.2049	3133.0000
36.2254	3155.0000
36.2458	3148.0000
36.2663	3023.0000
36.2868	3023.0000
36.3073	3120.0000
36.3277	3075.0000
36.3482	3011.0000
36.3687	3019.0000
36.3892	3005.0000
36.4096	3080.0000
36.4301	2995.0000
36.4506	2943.0000
36.4711	3019.0000
36.4915	2915.0000
36.5120	3030.0000
36.5325	2901.0000
36.5530	2946.0000
36.5734	2956.0000
36.5939	2836.0000
36.6144	2815.0000
36.6349	3037.0000
36.6554	2912.0000
36.6758	2975.0000
36.6963	2846.0000
36.7168	2859.0000
36.7373	2872.0000
36.7577	2760.0000
36.7782	2741.0000
36.7987	2773.0000
36.8192	2842.0000
36.8396	2761.0000
36.8601	2801.0000
36.8806	2706.0000
36.9011	2748.0000
36.9215	2843.0000
36.9420	2604.0000
36.9625	2777.0000
36.9830	2753.0000
37.0034	2764.0000
37.0239	2685.0000
37.0444	2675.0000
37.0649	2674.0000
37.0853	2713.0000
37.1058	2664.0000
37.1263	2593.0000
37.1468	2571.0000
37.1672	2614.0000
37.1877	2636.0000
37.2082	2650.0000
37.2287	2565.0000
37.2491	2622.0000
37.2696	2459.0000
37.2901	2535.0000
37.3106	2440.0000
37.3310	2483.0000
37.3515	2489.0000
37.3720	2508.0000
37.3925	2512.0000
37.4129	2481.0000
37.4334	2486.0000
37.4539	2419.0000
37.4744	2472.0000
37.4949	2511.0000
37.5153	2518.0000
37.5358	2399.0000
37.5563	2454.0000
37.5768	2446.0000
37.5972	2403.0000
37.6177	2407.0000
37.6382	2420.0000
37.6587	2415.0000
37.6791	2455.0000
37.6996	2388.0000
37.7201	2347.0000
37.7406	2422.0000
37.7610	2423.0000
37.7815	2344.0000
37.8020	2356.0000
37.8225	2438.0000
37.8429	2272.0000
37.8634	2230.0000
37.8839	2301.0000
37.9044	2345.0000
37.9248	2225.0000
37.9453	2212.0000
37.9658	2256.0000
37.9863	2252.0000
38.0067	2239.0000
38.0272	2214.0000
38.0477	2209.0000
38.0682	2282.0000
38.0886	2238.0000
38.1091	2146.0000
38.1296	2228.0000
38.1501	2172.0000
38.1705	2264.0000
38.1910	2138.0000
38.2115	2223.0000
38.2320	2103.0000
38.2525	2187.0000
38.2729	2102.0000
38.2934	2078.0000
38.3139	2107.0000
38.3344	2078.0000
38.3548	2158.0000
38.3753	2070.0000
38.3958	2145.0000
38.4163	2121.0000
38.4367	2110.0000
38.4572	2067.0000
38.4777	2116.0000
38.4982	2106.0000
38.5186	2114.0000
38.5391	2028.0000
38.5596	2072.0000
38.5801	2044.0000
38.6005	2115.0000
38.6210	1950.0000
38.6415	1962.0000
38.6620	2048.0000
38.6824	2030.0000
38.7029	1931.0000
38.7234	2011.0000
38.7439	1998.0000
38.7643	1947.0000
38.7848	2057.0000
38.8053	1994.0000
38.8258	2038.0000
38.8462	1963.0000
38.8667	1983.0000
38.8872	1946.0000
38.9077	1849.0000
38.9281	1980.0000
38.9486	1978.0000
38.9691	1940.0000
38.9896	1873.0000
39.0100	1979.0000
39.0305	1983.0000
39.0510	1826.0000
39.0715	1910.0000
39.0920	1927.0000
39.1124	1873.0000
39.1329	1897.0000
39.1534	1866.0000
39.1739	1966.0000
39.1943	1813.0000
39.2148	1905.0000
39.2353	1790.0000
39.2558	1861.0000
39.2762	1861.0000
39.2967	1904.0000
39.3172	1873.0000
39.3377	1918.0000
39.3581	1833.0000
39.3786	1861.0000
39.3991	1862.0000
39.4196	1853.0000
39.4400	1794.0000
39.4605	1823.0000
39.4810	1841.0000
39.5015	1856.0000
39.5219	1795.0000
39.5424	1861.0000
39.5629	1824.0000
39.5834	1793.0000
39.6038	1802.0000
39.6243	1818.0000
39.6448	1773.0000
39.6653	1738.0000
39.6857	1827.0000
39.7062	1816.0000
39.7267	1766.0000
39.7472	1730.0000
39.7676	1716.0000
39.7881	1696.0000
39.8086	1760.0000
39.8291	1828.0000
39.8496	1749.0000
39.8700	1772.0000
39.8905	1783.0000
39.9110	1724.0000
39.9315	1764.0000
39.9519	1710.0000
39.9724	1753.0000
39.9929	1758.0000
40.0134	1747.0000
40.0338	1718.0000
40.0543	1679.0000
40.0748	1800.0000
40.0953	1721.0000
40.1157	1667.0000
40.1362	1691.0000
40.1567	1691.0000
40.1772	1669.0000
40.1976	1672.0000
40.2181	1680.0000
40.2386	1675.0000
40.2591	1716.0000
40.2795	1671.0000
40.3000	1700.0000
40.3205	1759.0000
40.3410	1723.0000
40.3614	1585.0000
40.3819	1697.0000
40.4024	1655.0000
40.4229	1674.0000
40.4433	1626.0000
40.4638	1601.0000
40.4843	1680.0000
40.5048	1705.0000
40.5252	1650.0000
40.5457	1627.0000
40.5662	1571.0000
40.5867	1678.0000
40.6072	1622.0000
40.6276	1596.0000
40.6481	1665.0000
40.6686	1555.0000
40.6891	1618.0000
40.7095	1703.0000
40.7300	1666.0000
40.7505	1562.0000
40.7710	1659.0000
40.7914	1586.0000
40.8119	1616.0000
40.8324	1624.0000
40.8529	1569.0000
40.8733	1592.0000
40.8938	1584.0000
40.9143	1562.0000
40.9348	1520.0000
40.9552	1549.0000
40.9757	1586.0000
40.9962	1641.0000
41.0167	1600.0000
41.0371	1560.0000
41.0576	1612.0000
41.0781	1590.0000
41.0986	1543.0000
41.1190	1565.0000
41.1395	1574.0000
41.1600	1565.0000
41.1805	1533.0000
41.2009	1490.0000
41.2214	1499.0000
41.2419	1496.0000
41.2624	1557.0000
41.2828	1575.0000
41.3033	1542.0000
41.3238	1539.0000
41.3443	1547.0000
41.3647	1524.0000
41.3852	1627.0000
41.4057	1491.0000
41.4262	1458.0000
41.4467	1550.0000
41.4671	1509.0000
41.4876	1459.0000
41.5081	1484.0000
41.5286	1504.0000
41.5490	1501.0000
41.5695	1504.0000
41.5900	1556.0000
41.6105	1521.0000
41.6309	1420.0000
41.6514	1498.0000
41.6719	1465.0000
41.6924	1530.0000
41.7128	1489.0000
41.7333	1429.0000
41.7538	1499.0000
41.7743	1440.0000
41.7947	1432.0000
41.8152	1455.0000
41.8357	1454.0000
41.8562	1431.0000
41.8766	1476.0000
41.8971	1480.0000
41.9176	1476.0000
41.9381	1490.0000
41.9585	1464.0000
41.9790	1468.0000
41.9995	1429.0000
42.0200	1475.0000
42.0404	1439.0000
42.0609	1423.0000
42.0814	1471.0000
42.1019	1483.0000
42.1223	1444.0000
42.1428	1430.0000
42.1633	1396.0000
42.1838	1459.0000
42.2043	1473.0000
42.2247	1406.0000
42.2452	1405.0000
42.2657	1492.0000
42.2862	1427.0000
42.3066	1442.0000
42.3271	1387.0000
42.3476	1444.0000
42.3681	1510.0000
42.3885	1422.0000
42.4090	1389.0000
42.4295	1427.0000
42.4500	1411.0000
42.4704	1390.0000
42.4909	1417.0000
42.5114	1363.0000
42.5319	1395.0000
42.5523	1483.0000
42.5728	1453.0000
42.5933	1426.0000
42.6138	1369.0000
42.6342	1410.0000
42.6547	1382.0000
42.6752	1397.0000
42.6957	1425.0000
42.7161	1392.0000
42.7366	1398.0000
42.7571	1368.0000
42.7776	1420.0000
42.7980	1343.0000
42.8185	1338.0000
42.8390	1334.0000
42.8595	1373.0000
42.8799	1351.0000
42.9004	1422.0000
42.9209	1368.0000
42.9414	1358.0000
42.9618	1371.0000
42.9823	1379.0000
43.0028	1360.0000
43.0233	1348.0000
43.0438	1358.0000
43.0642	1367.0000
43.0847	1354.0000
43.1052	1297.0000
43.1257	1365.0000
43.1461	1347.0000
43.1666	1340.0000
43.1871	1375.0000
43.2076	1359.0000
43.2280	1372.0000
43.2485	1370.0000
43.2690	1360.0000
43.2895	1400.0000
43.3099	1378.0000
43.3304	1335.0000
43.3509	1368.0000
43.3714	1465.0000
43.3918	1393.0000
43.4123	1416.0000
43.4328	1317.0000
43.4533	1342.0000
43.4737	1355.0000
43.4942	1384.0000
43.5147	1407.0000
43.5352	1413.0000
43.5556	1341.0000
43.5761	1348.0000
43.5966	1404.0000
43.6171	1291.0000
43.6375	1299.0000
43.6580	1369.0000
43.6785	1288.0000
43.6990	1389.0000
43.7194	1319.0000
43.7399	1303.0000
43.7604	1335.0000
43.7809	1241.0000
43.8014	1321.0000
43.8218	1366.0000
43.8423	1325.0000
43.8628	1314.0000
43.8833	1321.0000
43.9037	1278.0000
43.9242	1268.0000
43.9447	1348.0000
43.9652	1349.0000
43.9856	1365.0000
44.0061	1296.0000
44.0266	1315.0000
44.0471	1334.0000
44.0675	1416.0000
44.0880	1294.0000
44.1085	1333.0000
44.1290	1330.0000
44.1494	1354.0000
44.1699	1353.0000
44.1904	1247.0000
44.2109	1343.0000
44.2313	1272.0000
44.2518	1313.0000
44.2723	1294.0000
44.2928	1293.0000
44.3132	1324.0000
44.3337	1335.0000
44.3542	1223.0000
44.3747	1265.0000
44.3951	1340.0000
44.4156	1356.0000
44.4361	1297.0000
44.4566	1316.0000
44.4770	1334.0000
44.4975	1324.0000
44.5180	1333.0000
44.5385	1318.0000
44.5590	1382.0000
44.5794	1280.0000
44.5999	1296.0000
44.6204	1276.0000
44.6409	1363.0000
44.6613	1302.0000
44.6818	1303.0000
44.7023	1308.0000
44.7228	1279.0000
44.7432	1269.0000
44.7637	1329.0000
44.7842	1284.0000
44.8047	1331.0000
44.8251	1303.0000
44.8456	1371.0000
44.8661	1299.0000
44.8866	1259.0000
44.9070	1312.0000
44.9275	1335.0000
44.9480	1278.0000
44.9685	1247.0000
44.9889	1335.0000
45.0094	1329.0000
45.0299	1256.0000
45.0504	1282.0000
45.0708	1295.0000
45.0913	1224.0000
45.1118	1308.0000
45.1323	1325.0000
45.1527	1311.0000
45.1732	1381.0000
45.1937	1318.0000
45.2142	1276.0000
45.2346	1278.0000
45.2551	1299.0000
45.2756	1225.0000
45.2961	1329.0000
45.3165	1277.0000
45.3370	1260.0000
45.3575	1328.0000
45.3780	1276.0000
45.3985	1253.0000
45.4189	1282.0000
45.4394	1309.0000
45.4599	1279.0000
45.4804	1243.0000
45.5008	1337.0000
45.5213	1282.0000
45.5418	1310.0000
45.5623	1257.0000
45.5827	1282.0000
45.6032	1284.0000
45.6237	1346.0000
45.6442	1305.0000
45.6646	1308.0000
45.6851	1273.0000
45.7056	1332.0000
45.7261	1279.0000
45.7465	1349.0000
45.7670	1318.0000
45.7875	1278.0000
45.8080	1261.0000
45.8284	1287.0000
45.8489	1270.0000
45.8694	1321.0000
45.8899	1277.0000
45.9103	1306.0000
45.9308	1279.0000
45.9513	1310.0000
45.9718	1273.0000
45.9922	1368.0000
46.0127	1307.0000
46.0332	1256.0000
46.0537	1265.0000
46.0741	1357.0000
46.0946	1262.0000
46.1151	1314.0000
46.1356	1352.0000
46.1561	1268.0000
46.1765	1353.0000
46.1970	1318.0000
46.2175	1311.0000
46.2380	1269.0000
46.2584	1278.0000
46.2789	1335.0000
46.2994	1332.0000
46.3199	1217.0000
46.3403	1288.0000
46.3608	1288.0000
46.3813	1336.0000
46.4018	1306.0000
46.4222	1337.0000
46.4427	1266.0000
46.4632	1345.0000
46.4837	1257.0000
46.5041	1359.0000
46.5246	1281.0000
46.5451	1302.0000
46.5656	1334.0000
46.5860	1344.0000
46.6065	1359.0000
46.6270	1342.0000
46.6475	1302.0000
46.6679	1324.0000
46.6884	1295.0000
46.7089	1351.0000
46.7294	1432.0000
46.7498	1348.0000
46.7703	1258.0000
46.7908	1259.0000
46.8113	1317.0000
46.8317	1274.0000
46.8522	1289.0000
46.8727	1296.0000
46.8932	1334.0000
46.9136	1281.0000
46.9341	1307.0000
46.9546	1345.0000
46.9751	1342.0000
46.9956	1382.0000
47.0160	1289.0000
47.0365	1374.0000
47.0570	1349.0000
47.0775	1341.0000
47.0979	1340.0000
47.1184	1450.0000
47.1389	1358.0000
47.1594	1324.0000
47.1798	1417.0000
47.2003	1383.0000
47.2208	1334.0000
47.2413	1316.0000
47.2617	1397.0000
47.2822	1363.0000
47.3027	1358.0000
47.3232	1370.0000
47.3436	1318.0000
47.3641	1335.0000
47.3846	1400.0000
47.4051	1396.0000
47.4255	1358.0000
47.4460	1360.0000
47.4665	1427.0000
47.4870	1481.0000
47.5074	1389.0000
47.5279	1284.0000
47.5484	1343.0000
47.5689	1333.0000
47.5893	1351.0000
47.6098	1364.0000
47.6303	1365.0000
47.6508	1349.0000
47.6712	1327.0000
47.6917	1331.0000
47.7122	1335.0000
47.7327	1393.0000
47.7532	1282.0000
47.7736	1335.0000
47.7941	1326.0000
47.8146	1371.0000
47.8351	1278.0000
47.8555	1391.0000
47.8760	1346.0000
47.8965	1367.0000
47.9170	1420.0000
47.9374	1313.0000
47.9579	1325.0000
47.9784	1334.0000
47.9989	1437.0000
48.0193	1367.0000
48.0398	1342.0000
48.0603	1391.0000
48.0808	1370.0000
48.1012	1313.0000
48.1217	1312.0000
48.1422	1451.0000
48.1627	1369.0000
48.1831	1344.0000
48.2036	1432.0000
48.2241	1381.0000
48.2446	1452.0000
48.2650	1338.0000
48.2855	1393.0000
48.3060	1405.0000
48.3265	1436.0000
48.3469	1426.0000
48.3674	1468.0000
48.3879	1341.0000
48.4084	1406.0000
48.4288	1435.0000
48.4493	1445.0000
48.4698	1415.0000
48.4903	1380.0000
48.5108	1390.0000
48.5312	1375.0000
48.5517	1418.0000
48.5722	1394.0000
48.5927	1403.0000
48.6131	1456.0000
48.6336	1413.0000
48.6541	1430.0000
48.6746	1460.0000
48.6950	1439.0000
48.7155	1471.0000
48.7360	1402.0000
48.7565	1411.0000
48.7769	1424.0000
48.7974	1377.0000
48.8179	1422.0000
48.8384	1437.0000
48.8588	1528.0000
48.8793	1481.0000
48.8998	1498.0000
48.9203	1459.0000
48.9407	1433.0000
48.9612	1405.0000
48.9817	1410.0000
49.0022	1444.0000
49.0226	1434.0000
49.0431	1448.0000
49.0636	1430.0000
49.0841	1486.0000
49.1045	1437.0000
49.1250	1474.0000
49.1455	1410.0000
49.1660	1440.0000
49.1864	1509.0000
49.2069	1514.0000
49.2274	1470.0000
49.2479	1475.0000
49.2683	1440.0000
49.2888	1449.0000
49.3093	1455.0000
49.3298	1488.0000
49.3503	1418.0000
49.3707	1505.0000
49.3912	1546.0000
49.4117	1544.0000
49.4322	1453.0000
49.4526	1439.0000
49.4731	1490.0000
49.4936	1502.0000
49.5141	1546.0000
49.5345	1497.0000
49.5550	1482.0000
49.5755	1507.0000
49.5960	1542.0000
49.6164	1401.0000
49.6369	1478.0000
49.6574	1477.0000
49.6779	1482.0000
49.6983	1452.0000
49.7188	1523.0000
49.7393	1450.0000
49.7598	1488.0000
49.7802	1572.0000
49.8007	1525.0000
49.8212	1511.0000
49.8417	1496.0000
49.8621	1486.0000
49.8826	1470.0000
49.9031	1489.0000
49.9236	1514.0000
49.9440	1487.0000
49.9645	1510.0000
49.9850	1511.0000
50.0055	1576.0000
50.0259	1546.0000
50.0464	1585.0000
50.0669	1535.0000
50.0874	1553.0000
50.1079	1548.0000
50.1283	1559.0000
50.1488	1562.0000
50.1693	1508.0000
50.1898	1537.0000
50.2102	1629.0000
50.2307	1614.0000
50.2512	1570.0000
50.2717	1539.0000
50.2921	1605.0000
50.3126	1598.0000
50.3331	1535.0000
50.3536	1555.0000
50.3740	1576.0000
50.3945	1558.0000
50.4150	1592.0000
50.4355	1539.0000
50.4559	1645.0000
50.4764	1651.0000
50.4969	1689.0000
50.5174	1567.0000
50.5378	1606.0000
50.5583	1573.0000
50.5788	1598.0000
50.5993	1565.0000
50.6197	1588.0000
50.6402	1635.0000
50.6607	1652.0000
50.6812	1681.0000
50.7016	1600.0000
50.7221	1601.0000
50.7426	1633.0000
50.7631	1631.0000
50.7835	1599.0000
50.8040	1639.0000
50.8245	1672.0000
50.8450	1649.0000
50.8654	1607.0000
50.8859	1641.0000
50.9064	1712.0000
50.9269	1657.0000
50.9474	1567.0000
50.9678	1763.0000
50.9883	1711.0000
51.0088	1629.0000
51.0293	1641.0000
51.0497	1580.0000
51.0702	1609.0000
51.0907	1633.0000
51.1112	1665.0000
51.1316	1671.0000
51.1521	1696.0000
51.1726	1692.0000
51.1931	1646.0000
51.2135	1699.0000
51.2340	1758.0000
51.2545	1729.0000
51.2750	1649.0000
51.2954	1676.0000
51.3159	1689.0000
51.3364	1699.0000
51.3569	1669.0000
51.3773	1693.0000
51.3978	1694.0000
51.4183	1715.0000
51.4388	1712.0000
51.4592	1683.0000
51.4797	1641.0000
51.5002	1715.0000
51.5207	1733.0000
51.5411	1791.0000
51.5616	1647.0000
51.5821	1802.0000
51.6026	1756.0000
51.6230	1702.0000
51.6435	1699.0000
51.6640	1716.0000
51.6845	1744.0000
51.7050	1756.0000
51.7254	1686.0000
51.7459	1766.0000
51.7664	1733.0000
51.7869	1768.0000
51.8073	1770.0000
51.8278	1802.0000
51.8483	1812.0000
51.8688	1747.0000
51.8892	1776.0000
51.9097	1757.0000
51.9302	1806.0000
51.9507	1787.0000
51.9711	1807.0000
51.9916	1837.0000
52.0121	1790.0000
52.0326	1769.0000
52.0530	1819.0000
52.0735	1807.0000
52.0940	1836.0000
52.1145	1775.0000
52.1349	1834.0000
52.1554	1828.0000
52.1759	1770.0000
52.1964	1799.0000
52.2168	1797.0000
52.2373	1809.0000
52.2578	1839.0000
52.2783	1820.0000
52.2987	1818.0000
52.3192	1852.0000
52.3397	1801.0000
52.3602	1857.0000
52.3806	1848.0000
52.4011	1773.0000
52.4216	1870.0000
52.4421	1773.0000
52.4625	1850.0000
52.4830	1866.0000
52.5035	1912.0000
52.5240	1846.0000
52.5445	1896.0000
52.5649	1823.0000
52.5854	1871.0000
52.6059	1828.0000
52.6264	1801.0000
52.6468	1868.0000
52.6673	1926.0000
52.6878	1878.0000
52.7083	1926.0000
52.7287	1875.0000
52.7492	1983.0000
52.7697	1843.0000
52.7902	1901.0000
52.8106	1902.0000
52.8311	1792.0000
52.8516	1913.0000
52.8721	1904.0000
52.8925	1934.0000
52.9130	1903.0000
52.9335	1957.0000
52.9540	1894.0000
52.9744	1893.0000
52.9949	1958.0000
53.0154	1883.0000
53.0359	1912.0000
53.0563	2000.0000
53.0768	1888.0000
53.0973	1961.0000
53.1178	1898.0000
53.1382	1867.0000
53.1587	1960.0000
53.1792	1927.0000
53.1997	1866.0000
53.2201	1902.0000
53.2406	1976.0000
53.2611	1957.0000
53.2816	1907.0000
53.3021	1964.0000
53.3225	1954.0000
53.3430	1928.0000
53.3635	2033.0000
53.3840	1991.0000
53.4044	1981.0000
53.4249	2004.0000
53.4454	1940.0000
53.4659	1948.0000
53.4863	1916.0000
53.5068	1999.0000
53.5273	1967.0000
53.5478	1986.0000
53.5682	1889.0000
53.5887	1961.0000
53.6092	1968.0000
53.6297	1921.0000
53.6501	1999.0000
53.6706	2102.0000
53.6911	2066.0000
53.7116	2006.0000
53.7320	2021.0000
53.7525	1959.0000
53.7730	2000.0000
53.7935	1976.0000
53.8139	1928.0000
53.8344	2071.0000
53.8549	2084.0000
53.8754	2061.0000
53.8958	2018.0000
53.9163	2012.0000
53.9368	2035.0000
53.9573	2012.0000
53.9777	1999.0000
53.9982	2007.0000
54.0187	2054.0000
54.0392	2043.0000
54.0597	2017.0000
54.0801	2051.0000
54.1006	2089.0000
54.1211	1973.0000
54.1416	2034.0000
54.1620	2055.0000
54.1825	2030.0000
54.2030	2063.0000
54.2235	2037.0000
54.2439	2016.0000
54.2644	2039.0000
54.2849	2064.0000
54.3054	2108.0000
54.3258	2003.0000
54.3463	1992.0000
54.3668	1996.0000
54.3873	2062.0000
54.4077	2020.0000
54.4282	2106.0000
54.4487	2066.0000
54.4692	2172.0000
54.4896	2030.0000
54.5101	2056.0000
54.5306	2094.0000
54.5511	2039.0000
54.5715	2020.0000
54.5920	2022.0000
54.6125	1978.0000
54.6330	2102.0000
54.6534	2048.0000
54.6739	2040.0000
54.6944	2082.0000
54.7149	2028.0000
54.7353	2025.0000
54.7558	2033.0000
54.7763	1979.0000
54.7968	2098.0000
54.8172	2066.0000
54.8377	2017.0000
54.8582	2026.0000
54.8787	2014.0000
54.8992	1997.0000
54.9196	1992.0000
54.9401	2127.0000
54.9606	2049.0000
54.9811	2095.0000
55.0015	2007.0000
55.0220	2063.0000
55.0425	1938.0000
55.0630	1958.0000
55.0834	2066.0000
55.1039	2046.0000
55.1244	2076.0000
55.1449	2051.0000
55.1653	1988.0000
55.1858	1998.0000
55.2063	2066.0000
55.2268	1999.0000
55.2472	1961.0000
55.2677	2018.0000
55.2882	2009.0000
55.3087	2047.0000
55.3291	2058.0000
55.3496	1992.0000
55.3701	2117.0000
55.3906	2086.0000
55.4110	2026.0000
55.4315	1992.0000
55.4520	2013.0000
55.4725	2021.0000
55.4929	1971.0000
55.5134	2018.0000
55.5339	2061.0000
55.5544	2019.0000
55.5748	2012.0000
55.5953	2043.0000
55.6158	2044.0000
55.6363	2051.0000
55.6568	1977.0000
55.6772	1971.0000
55.6977	1987.0000
55.7182	2013.0000
55.7387	2017.0000
55.7591	2054.0000
55.7796	2040.0000
55.8001	2076.0000
55.8206	2032.0000
55.8410	2031.0000
55.8615	2043.0000
55.8820	2048.0000
55.9025	1919.0000
55.9229	2009.0000
55.9434	1946.0000
55.9639	1984.0000
55.9844	1911.0000
56.0048	1983.0000
56.0253	1983.0000
56.0458	2074.0000
56.0663	1970.0000
56.0867	2074.0000
56.1072	1964.0000
56.1277	2023.0000
56.1482	1971.0000
56.1686	2031.0000
56.1891	1932.0000
56.2096	2008.0000
56.2301	2015.0000
56.2505	2033.0000
56.2710	2007.0000
56.2915	1902.0000
56.3120	2061.0000
56.3324	2003.0000
56.3529	1943.0000
56.3734	1977.0000
56.3939	2024.0000
56.4143	1917.0000
56.4348	1955.0000
56.4553	1959.0000
56.4758	1965.0000
56.4963	2046.0000
56.5167	1941.0000
56.5372	1936.0000
56.5577	1984.0000
56.5782	1959.0000
56.5986	1953.0000
56.6191	1962.0000
56.6396	1981.0000
56.6601	1917.0000
56.6805	1973.0000
56.7010	1965.0000
56.7215	2004.0000
56.7420	2001.0000
56.7624	1916.0000
56.7829	2035.0000
56.8034	1879.0000
56.8239	2001.0000
56.8443	1980.0000
56.8648	1988.0000
56.8853	1997.0000
56.9058	1979.0000
56.9262	1958.0000
56.9467	1981.0000
56.9672	1975.0000
56.9877	1901.0000
57.0081	1987.0000
57.0286	1977.0000
57.0491	1974.0000
57.0696	1853.0000
57.0900	1894.0000
57.1105	1891.0000
57.1310	2005.0000
57.1515	1878.0000
57.1719	1922.0000
57.1924	1924.0000
57.2129	1823.0000
57.2334	1883.0000
57.2539	1862.0000
57.2743	1872.0000
57.2948	1983.0000
57.3153	1867.0000
57.3358	2001.0000
57.3562	1977.0000
57.3767	1938.0000
57.3972	1973.0000
57.4177	1922.0000
57.4381	1911.0000
57.4586	1927.0000
57.4791	1897.0000
57.4996	1910.0000
57.5200	1931.0000
57.5405	1838.0000
57.5610	1910.0000
57.5815	1914.0000
57.6019	1967.0000
57.6224	1930.0000
57.6429	1871.0000
57.6634	1921.0000
57.6838	1898.0000
57.7043	1859.0000
57.7248	1866.0000
57.7453	1907.0000
57.7657	1865.0000
57.7862	1945.0000
57.8067	1936.0000
57.8272	1810.0000
57.8476	1899.0000
57.8681	1933.0000
57.8886	1829.0000
57.9091	1955.0000
57.9295	1778.0000
57.9500	1834.0000
57.9705	1942.0000
57.9910	1894.0000
58.0115	1892.0000
58.0319	1901.0000
58.0524	1860.0000
58.0729	1803.0000
58.0934	1769.0000
58.1138	1888.0000
58.1343	1909.0000
58.1548	1795.0000
58.1753	1882.0000
58.1957	1877.0000
58.2162	1867.0000
58.2367	1805.0000
58.2572	1896.0000
58.2776	1778.0000
58.2981	1857.0000
58.3186	1869.0000
58.3391	1899.0000
58.3595	1872.0000
58.3800	1841.0000
58.4005	1814.0000
58.4210	1851.0000
58.4414	1821.0000
58.4619	1754.0000
58.4824	1779.0000
58.5029	1776.0000
58.5233	1861.0000
58.5438	1761.0000
58.5643	1883.0000
58.5848	1843.0000
58.6052	1784.0000
58.6257	1818.0000
58.6462	1811.0000
58.6667	1818.0000
58.6871	1807.0000
58.7076	1825.0000
58.7281	1747.0000
58.7486	1845.0000
58.7690	1742.0000
58.7895	1789.0000
58.8100	1820.0000
58.8305	1805.0000
58.8510	1785.0000
58.8714	1793.0000
58.8919	1832.0000
58.9124	1852.0000
58.9329	1871.0000
58.9533	1770.0000
58.9738	1881.0000
58.9943	1733.0000
59.0148	1780.0000
59.0352	1762.0000
59.0557	1870.0000
59.0762	1806.0000
59.0967	1807.0000
59.1171	1688.0000
59.1376	1693.0000
59.1581	1862.0000
59.1786	1806.0000
59.1990	1798.0000
59.2195	1772.0000
59.2400	1734.0000
59.2605	1731.0000
59.2809	1845.0000
59.3014	1763.0000
59.3219	1756.0000
59.3424	1777.0000
59.3628	1799.0000
59.3833	1805.0000
59.4038	1795.0000
59.4243	1794.0000
59.4447	1750.0000
59.4652	1878.0000
59.4857	1751.0000
59.5062	1737.0000
59.5266	1721.0000
59.5471	1742.0000
59.5676	1698.0000
59.5881	1702.0000
59.6086	1720.0000
59.6290	1822.0000
59.6495	1804.0000
59.6700	1770.0000
59.6905	1705.0000
59.7109	1728.0000
59.7314	1702.0000
59.7519	1765.0000
59.7724	1676.0000
59.7928	1692.0000
59.8133	1701.0000
59.8338	1669.0000
59.8543	1719.0000
59.8747	1685.0000
59.8952	1688.0000
59.9157	1676.0000
59.9362	1701.0000
59.9566	1748.0000
59.9771	1751.0000
59.9976	1753.0000
60.0181	1629.0000
60.0385	1738.0000
60.0590	1696.0000
60.0795	1725.0000
60.1000	1691.0000
60.1204	1701.0000
60.1409	1650.0000
60.1614	1625.0000
60.1819	1676.0000
60.2023	1703.0000
60.2228	1636.0000
60.2433	1709.0000
60.2638	1677.0000
60.2842	1614.0000
60.3047	1681.0000
60.3252	1709.0000
60.3457	1717.0000
60.3661	1680.0000
60.3866	1670.0000
60.4071	1590.0000
60.4276	1653.0000
60.4481	1620.0000
60.4685	1681.0000
60.4890	1683.0000
60.5095	1671.0000
60.5300	1643.0000
60.5504	1665.0000
60.5709	1584.0000
60.5914	1684.0000
60.6119	1624.0000
60.6323	1634.0000
60.6528	1643.0000
60.6733	1636.0000
60.6938	1623.0000
60.7142	1604.0000
60.7347	1647.0000
60.7552	1648.0000
60.7757	1739.0000
60.7961	1579.0000
60.8166	1633.0000
60.8371	1664.0000
60.8576	1581.0000
60.8780	1632.0000
60.8985	1668.0000
60.9190	1674.0000
60.9395	1643.0000
60.9599	1605.0000
60.9804	1607.0000
61.0009	1590.0000
61.0214	1631.0000
61.0418	1594.0000
61.0623	1695.0000
61.0828	1609.0000
61.1033	1612.0000
61.1237	1560.0000
61.1442	1594.0000
61.1647	1640.0000
61.1852	1640.0000
61.2057	1579.0000
61.2261	1594.0000
61.2466	1638.0000
61.2671	1588.0000
61.2876	1622.0000
61.3080	1599.0000
61.3285	1595.0000
61.3490	1577.0000
61.3695	1532.0000
61.3899	1557.0000
61.4104	1650.0000
61.4309	1651.0000
61.4514	1594.0000
61.4718	1613.0000
61.4923	1570.0000
61.5128	1602.0000
61.5333	1625.0000
61.5537	1590.0000
61.5742	1639.0000
61.5947	1690.0000
61.6152	1668.0000
61.6356	1518.0000
61.6561	1623.0000
61.6766	1516.0000
61.6971	1550.0000
61.7175	1591.0000
61.7380	1605.0000
61.7585	1621.0000
61.7790	1539.0000
61.7994	1551.0000
61.8199	1573.0000
61.8404	1648.0000
61.8609	1565.0000
61.8813	1608.0000
61.9018	1553.0000
61.9223	1552.0000
61.9428	1629.0000
61.9633	1518.0000
61.9837	1575.0000
62.0042	1578.0000
62.0247	1595.0000
62.0452	1531.0000
62.0656	1564.0000
62.0861	1545.0000
62.1066	1598.0000
62.1271	1573.0000
62.1475	1525.0000
62.1680	1585.0000
62.1885	1563.0000
62.2090	1520.0000
62.2294	1526.0000
62.2499	1623.0000
62.2704	1556.0000
62.2909	1568.0000
62.3113	1632.0000
62.3318	1469.0000
62.3523	1580.0000
62.3728	1564.0000
62.3932	1586.0000
62.4137	1600.0000
62.4342	1600.0000
62.4547	1533.0000
62.4751	1615.0000
62.4956	1574.0000
62.5161	1551.0000
62.5366	1567.0000
62.5570	1535.0000
62.5775	1565.0000
62.5980	1539.0000
62.6185	1549.0000
62.6389	1589.0000
62.6594	1523.0000
62.6799	1529.0000
62.7004	1558.0000
62.7208	1580.0000
62.7413	1565.0000
62.7618	1557.0000
62.7823	1627.0000
62.8028	1544.0000
62.8232	1487.0000
62.8437	1550.0000
62.8642	1504.0000
62.8847	1536.0000
62.9051	1518.0000
62.9256	1559.0000
62.9461	1549.0000
62.9666	1532.0000
62.9870	1478.0000
63.0075	1609.0000
63.0280	1542.0000
63.0485	1533.0000
63.0689	1495.0000
63.0894	1573.0000
63.1099	1542.0000
63.1304	1537.0000
63.1508	1535.0000
63.1713	1535.0000
63.1918	1543.0000
63.2123	1539.0000
63.2327	1475.0000
63.2532	1503.0000
63.2737	1596.0000
63.2942	1482.0000
63.3146	1581.0000
63.3351	1456.0000
63.3556	1545.0000
63.3761	1527.0000
63.3965	1478.0000
63.4170	1514.0000
63.4375	1509.0000
63.4580	1535.0000
63.4784	1480.0000
63.4989	1450.0000
63.5194	1467.0000
63.5399	1476.0000
63.5604	1515.0000
63.5808	1537.0000
63.6013	1502.0000
63.6218	1506.0000
63.6423	1519.0000
63.6627	1496.0000
63.6832	1459.0000
63.7037	1567.0000
63.7242	1492.0000
63.7446	1538.0000
63.7651	1491.0000
63.7856	1509.0000
63.8061	1513.0000
63.8265	1530.0000
63.8470	1511.0000
63.8675	1613.0000
63.8880	1460.0000
63.9084	1454.0000
63.9289	1519.0000
63.9494	1478.0000
63.9699	1525.0000
63.9903	1439.0000
64.0108	1470.0000
64.0313	1539.0000
64.0518	1468.0000
64.0722	1525.0000
64.0927	1487.0000
64.1132	1510.0000
64.1337	1514.0000
64.1541	1560.0000
64.1746	1453.0000
64.1951	1478.0000
64.2156	1488.0000
64.2360	1499.0000
64.2565	1514.0000
64.2770	1516.0000
64.2975	1451.0000
64.3179	1487.0000
64.3384	1522.0000
64.3589	1517.0000
64.3794	1447.0000
64.3999	1488.0000
64.4203	1468.0000
64.4408	1459.0000
64.4613	1483.0000
64.4818	1507.0000
64.5022	1466.0000
64.5227	1552.0000
64.5432	1523.0000
64.5637	1484.0000
64.5841	1461.0000
64.6046	1458.0000
64.6251	1507.0000
64.6456	1462.0000
64.6660	1454.0000
64.6865	1442.0000
64.7070	1448.0000
64.7275	1469.0000
64.7479	1461.0000
64.7684	1467.0000
64.7889	1480.0000
64.8094	1539.0000
64.8298	1438.0000
64.8503	1432.0000
64.8708	1437.0000
64.8913	1457.0000
64.9117	1461.0000
64.9322	1469.0000
64.9527	1448.0000
64.9732	1492.0000
64.9936	1435.0000
65.0141	1456.0000
65.0346	1478.0000
65.0551	1473.0000
65.0755	1467.0000
65.0960	1488.0000
65.1165	1441.0000
65.1370	1498.0000
65.1575	1522.0000
65.1779	1489.0000
65.1984	1386.0000
65.2189	1449.0000
65.2394	1467.0000
65.2598	1504.0000
65.2803	1466.0000
65.3008	1523.0000
65.3213	1492.0000
65.3417	1453.0000
65.3622	1442.0000
65.3827	1462.0000
65.4032	1550.0000
65.4236	1441.0000
65.4441	1471.0000
65.4646	1454.0000
65.4851	1477.0000
65.5055	1475.0000
65.5260	1409.0000
65.5465	1442.0000
65.5670	1484.0000
65.5874	1445.0000
65.6079	1455.0000
65.6284	1434.0000
65.6489	1388.0000
65.6693	1508.0000
65.6898	1404.0000
65.7103	1487.0000
65.7308	1433.0000
65.7512	1442.0000
65.7717	1399.0000
65.7922	1339.0000
65.8127	1437.0000
65.8331	1407.0000
65.8536	1435.0000
65.8741	1463.0000
65.8946	1505.0000
65.9151	1425.0000
65.9355	1370.0000
65.9560	1425.0000
65.9765	1380.0000
65.9970	1433.0000
66.0174	1480.0000
66.0379	1403.0000
66.0584	1417.0000
66.0789	1411.0000
66.0993	1382.0000
66.1198	1399.0000
66.1403	1353.0000
66.1608	1477.0000
66.1812	1438.0000
66.2017	1401.0000
66.2222	1375.0000
66.2427	1418.0000
66.2631	1388.0000
66.2836	1362.0000
66.3041	1318.0000
66.3246	1318.0000
66.3450	1425.0000
66.3655	1406.0000
66.3860	1438.0000
66.4065	1398.0000
66.4269	1437.0000
66.4474	1395.0000
66.4679	1348.0000
66.4884	1430.0000
66.5088	1369.0000
66.5293	1409.0000
66.5498	1320.0000
66.5703	1390.0000
66.5907	1391.0000
66.6112	1360.0000
66.6317	1349.0000
66.6522	1325.0000
66.6726	1449.0000
66.6931	1381.0000
66.7136	1425.0000
66.7341	1380.0000
66.7546	1419.0000
66.7750	1328.0000
66.7955	1364.0000
66.8160	1354.0000
66.8365	1375.0000
66.8569	1481.0000
66.8774	1434.0000
66.8979	1413.0000
66.9184	1374.0000
66.9388	1369.0000
66.9593	1344.0000
66.9798	1324.0000
67.0003	1398.0000
67.0207	1312.0000
67.0412	1387.0000
67.0617	1365.0000
67.0822	1345.0000
67.1026	1359.0000
67.1231	1233.0000
67.1436	1350.0000
67.1641	1345.0000
67.1845	1338.0000
67.2050	1387.0000
67.2255	1366.0000
67.2460	1360.0000
67.2664	1207.0000
67.2869	1355.0000
67.3074	1328.0000
67.3279	1287.0000
67.3483	1282.0000
67.3688	1300.0000
67.3893	1261.0000
67.4098	1269.0000
67.4302	1269.0000
67.4507	1283.0000
67.4712	1300.0000
67.4917	1327.0000
67.5122	1321.0000
67.5326	1304.0000
67.5531	1279.0000
67.5736	1267.0000
67.5941	1311.0000
67.6145	1291.0000
67.6350	1293.0000
67.6555	1360.0000
67.6760	1347.0000
67.6964	1307.0000
67.7169	1302.0000
67.7374	1338.0000
67.7579	1340.0000
67.7783	1263.0000
67.7988	1289.0000
67.8193	1326.0000
67.8398	1291.0000
67.8602	1318.0000
67.8807	1368.0000
67.9012	1251.0000
67.9217	1263.0000
67.9421	1265.0000
67.9626	1301.0000
67.9831	1275.0000
68.0036	1259.0000
68.0240	1261.0000
68.0445	1287.0000
68.0650	1315.0000
68.0855	1195.0000
68.1059	1215.0000
68.1264	1244.0000
68.1469	1285.0000
68.1674	1277.0000
68.1878	1270.0000
68.2083	1262.0000
68.2288	1182.0000
68.2493	1257.0000
68.2697	1278.0000
68.2902	1268.0000
68.3107	1223.0000
68.3312	1257.0000
68.3517	1241.0000
68.3721	1267.0000
68.3926	1211.0000
68.4131	1210.0000
68.4336	1254.0000
68.4540	1233.0000
68.4745	1255.0000
68.4950	1258.0000
68.5155	1230.0000
68.5359	1199.0000
68.5564	1256.0000
68.5769	1238.0000
68.5974	1273.0000
68.6178	1211.0000
68.6383	1208.0000
68.6588	1254.0000
68.6793	1255.0000
68.6997	1227.0000
68.7202	1239.0000
68.7407	1229.0000
68.7612	1181.0000
68.7816	1240.0000
68.8021	1183.0000
68.8226	1187.0000
68.8431	1237.0000
68.8635	1185.0000
68.8840	1201.0000
68.9045	1175.0000
68.9250	1218.0000
68.9454	1200.0000
68.9659	1213.0000
68.9864	1237.0000
69.0069	1210.0000
69.0273	1187.0000
69.0478	1193.0000
69.0683	1183.0000
69.0888	1199.0000
69.1093	1189.0000
69.1297	1219.0000
69.1502	1141.0000
69.1707	1177.0000
69.1912	1127.0000
69.2116	1253.0000
69.2321	1132.0000
69.2526	1177.0000
69.2731	1158.0000
69.2935	1205.0000
69.3140	1170.0000
69.3345	1198.0000
69.3550	1148.0000
69.3754	1208.0000
69.3959	1202.0000
69.4164	1207.0000
69.4369	1162.0000
69.4573	1201.0000
69.4778	1163.0000
69.4983	1228.0000
69.5188	1205.0000
69.5392	1153.0000
69.5597	1091.0000
69.5802	1128.0000
69.6007	1198.0000
69.6211	1168.0000
69.6416	1156.0000
69.6621	1171.0000
69.6826	1162.0000
69.7030	1150.0000
69.7235	1203.0000
69.7440	1173.0000
69.7645	1108.0000
69.7849	1159.0000
69.8054	1176.0000
69.8259	1124.0000
69.8464	1136.0000
69.8669	1199.0000
69.8873	1122.0000
69.9078	1051.0000
69.9283	1153.0000
69.9488	1193.0000
69.9692	1162.0000
69.9897	1107.0000
70.0102	1128.0000
70.0307	1068.0000
70.0511	1164.0000
70.0716	1069.0000
70.0921	1115.0000
70.1126	1109.0000
70.1330	1109.0000
70.1535	1161.0000
70.1740	1107.0000
70.1945	1132.0000
70.2149	1137.0000
70.2354	1133.0000
70.2559	1169.0000
70.2764	1110.0000
70.2968	1136.0000
70.3173	1093.0000
70.3378	1135.0000
70.3583	1184.0000
70.3787	1216.0000
70.3992	1133.0000
70.4197	1116.0000
70.4402	1166.0000
70.4606	1122.0000
70.4811	1090.0000
70.5016	1082.0000
70.5221	1114.0000
70.5425	1062.0000
70.5630	1208.0000
70.5835	1116.0000
70.6040	1108.0000
70.6244	1149.0000
70.6449	1086.0000
70.6654	1100.0000
70.6859	1086.0000
70.7064	1080.0000
70.7268	1130.0000
70.7473	1105.0000
70.7678	1065.0000
70.7883	1125.0000
70.8087	1129.0000
70.8292	1164.0000
70.8497	1110.0000
70.8702	1102.0000
70.8906	1103.0000
70.9111	1040.0000
70.9316	1037.0000
70.9521	1089.0000
70.9725	1106.0000
70.9930	1044.0000
71.0135	1069.0000
71.0340	1100.0000
71.0544	1054.0000
71.0749	1085.0000
71.0954	1072.0000
71.1159	1112.0000
71.1363	1145.0000
71.1568	1048.0000
71.1773	1037.0000
71.1978	1155.0000
71.2182	1109.0000
71.2387	1082.0000
71.2592	1088.0000
71.2797	1145.0000
71.3001	1074.0000
71.3206	1050.0000
71.3411	1036.0000
71.3616	1123.0000
71.3820	1061.0000
71.4025	1119.0000
71.4230	1033.0000
71.4435	996.0000
71.4640	1085.0000
71.4844	1086.0000
71.5049	1060.0000
71.5254	1104.0000
71.5459	1039.0000
71.5663	1035.0000
71.5868	1163.0000
71.6073	1090.0000
71.6278	1093.0000
71.6482	1029.0000
71.6687	1096.0000
71.6892	1045.0000
71.7097	1021.0000
71.7301	1081.0000
71.7506	982.0000
71.7711	1059.0000
71.7916	1041.0000
71.8120	1055.0000
71.8325	1055.0000
71.8530	1032.0000
71.8735	1004.0000
71.8939	1032.0000
71.9144	1007.0000
71.9349	1071.0000
71.9554	1086.0000
71.9758	1040.0000
71.9963	1044.0000
72.0168	1038.0000
72.0373	1101.0000
72.0577	990.0000
72.0782	1029.0000
72.0987	1040.0000
72.1192	1027.0000
72.1396	1047.0000
72.1601	1014.0000
72.1806	1063.0000
72.2011	1108.0000
72.2215	1011.0000
72.2420	1051.0000
72.2625	1030.0000
72.2830	1063.0000
72.3035	1012.0000
72.3239	1006.0000
72.3444	1005.0000
72.3649	1020.0000
72.3854	996.0000
72.4058	1024.0000
72.4263	1035.0000
72.4468	1039.0000
72.4673	1031.0000
72.4877	958.0000
72.5082	1000.0000
72.5287	1033.0000
72.5492	1046.0000
72.5696	982.0000
72.5901	1018.0000
72.6106	1005.0000
72.6311	1049.0000
72.6515	992.0000
72.6720	997.0000
72.6925	958.0000
72.7130	1037.0000
72.7334	1004.0000
72.7539	1018.0000
72.7744	1030.0000
72.7949	987.0000
72.8153	1019.0000
72.8358	986.0000
72.8563	1003.0000
72.8768	1028.0000
72.8972	996.0000
72.9177	977.0000
72.9382	1035.0000
72.9587	1002.0000
72.9791	1044.0000
72.9996	1039.0000
73.0201	967.0000
73.0406	1021.0000
73.0611	993.0000
73.0815	1024.0000
73.1020	1062.0000
73.1225	1002.0000
73.1430	1088.0000
73.1634	1068.0000
73.1839	965.0000
73.2044	998.0000
73.2249	1037.0000
73.2453	971.0000
73.2658	1006.0000
73.2863	1009.0000
73.3068	1015.0000
73.3272	994.0000
73.3477	983.0000
73.3682	1019.0000
73.3887	1043.0000
73.4091	1006.0000
73.4296	996.0000
73.4501	972.0000
73.4706	991.0000
73.4910	982.0000
73.5115	1002.0000
73.5320	950.0000
73.5525	1022.0000
73.5729	996.0000
73.5934	1023.0000
73.6139	986.0000
73.6344	989.0000
73.6548	1018.0000
73.6753	959.0000
73.6958	976.0000
73.7163	1009.0000
73.7367	961.0000
73.7572	994.0000
73.7777	1021.0000
73.7982	965.0000
73.8186	949.0000
73.8391	977.0000
73.8596	1007.0000
73.8801	958.0000
73.9006	956.0000
73.9210	987.0000
73.9415	935.0000
73.9620	1005.0000
73.9825	961.0000
74.0029	987.0000
74.0234	966.0000
74.0439	993.0000
74.0644	1000.0000
74.0848	958.0000
74.1053	950.0000
74.1258	983.0000
74.1463	946.0000
74.1667	947.0000
74.1872	971.0000
74.2077	957.0000
74.2282	989.0000
74.2486	928.0000
74.2691	1021.0000
74.2896	982.0000
74.3101	918.0000
74.3305	1008.0000
74.3510	988.0000
74.3715	960.0000
74.3920	932.0000
74.4124	904.0000
74.4329	955.0000
74.4534	915.0000
74.4739	980.0000
74.4943	976.0000
74.5148	937.0000
74.5353	921.0000
74.5558	965.0000
74.5762	990.0000
74.5967	958.0000
74.6172	989.0000
74.6377	929.0000
74.6582	952.0000
74.6786	1042.0000
74.6991	972.0000
74.7196	982.0000
74.7401	922.0000
74.7605	971.0000
74.7810	978.0000
74.8015	953.0000
74.8220	975.0000
74.8424	1023.0000
74.8629	940.0000
74.8834	963.0000
74.9039	964.0000
74.9243	981.0000
74.9448	987.0000
74.9653	1000.0000
74.9858	959.0000
75.0062	933.0000
75.0267	929.0000
75.0472	862.0000
75.0677	964.0000
75.0881	903.0000
75.1086	940.0000
75.1291	958.0000
75.1496	958.0000
75.1700	977.0000
75.1905	930.0000
75.2110	933.0000
75.2315	989.0000
75.2519	970.0000
75.2724	912.0000
75.2929	972.0000
75.3134	993.0000
75.3338	908.0000
75.3543	901.0000
75.3748	874.0000
75.3953	934.0000
75.4158	925.0000
75.4362	949.0000
75.4567	914.0000
75.4772	915.0000
75.4977	950.0000
75.5181	899.0000
75.5386	966.0000
75.5591	878.0000
75.5796	943.0000
75.6000	950.0000
75.6205	924.0000
75.6410	931.0000
75.6615	918.0000
75.6819	932.0000
75.7024	946.0000
75.7229	914.0000
75.7434	878.0000
75.7638	927.0000
75.7843	931.0000
75.8048	918.0000
75.8253	944.0000
75.8457	966.0000
75.8662	883.0000
75.8867	931.0000
75.9072	950.0000
75.9276	943.0000
75.9481	901.0000
75.9686	921.0000
75.9891	916.0000
76.0095	894.0000
76.0300	905.0000
76.0505	910.0000
76.0710	896.0000
76.0914	892.0000
76.1119	957.0000
76.1324	917.0000
76.1529	927.0000
76.1733	917.0000
76.1938	890.0000
76.2143	920.0000
76.2348	849.0000
76.2553	941.0000
76.2757	870.0000
76.2962	944.0000
76.3167	878.0000
76.3372	963.0000
76.3576	927.0000
76.3781	900.0000
76.3986	924.0000
76.4191	879.0000
76.4395	955.0000
76.4600	909.0000
76.4805	960.0000
76.5010	961.0000
76.5214	913.0000
76.5419	924.0000
76.5624	929.0000
76.5829	930.0000
76.6033	888.0000
76.6238	922.0000
76.6443	940.0000
76.6648	900.0000
76.6852	953.0000
76.7057	892.0000
76.7262	910.0000
76.7467	909.0000
76.7671	972.0000
76.7876	934.0000
76.8081	888.0000
76.8286	884.0000
76.8490	939.0000
76.8695	910.0000
76.8900	910.0000
76.9105	922.0000
76.9309	906.0000
76.9514	919.0000
76.9719	905.0000
76.9924	887.0000
77.0129	887.0000
77.0333	876.0000
77.0538	860.0000
77.0743	974.0000
77.0948	868.0000
77.1152	943.0000
77.1357	916.0000
77.1562	881.0000
77.1767	943.0000
77.1971	895.0000
77.2176	907.0000
77.2381	948.0000
77.2586	913.0000
77.2790	922.0000
77.2995	848.0000
77.3200	928.0000
77.3405	918.0000
77.3609	878.0000
77.3814	936.0000
77.4019	841.0000
77.4224	949.0000
77.4428	945.0000
77.4633	897.0000
77.4838	888.0000
77.5043	902.0000
77.5247	855.0000
77.5452	875.0000
77.5657	921.0000
77.5862	957.0000
77.6066	942.0000
77.6271	943.0000
77.6476	877.0000
77.6681	929.0000
77.6885	899.0000
77.7090	880.0000
77.7295	938.0000
77.7500	846.0000
77.7704	856.0000
77.7909	865.0000
77.8114	889.0000
77.8319	919.0000
77.8524	880.0000
77.8728	863.0000
77.8933	934.0000
77.9138	904.0000
77.9343	923.0000
77.9547	912.0000
77.9752	895.0000
77.9957	938.0000
78.0162	902.0000
78.0366	853.0000
78.0571	890.0000
78.0776	894.0000
78.0981	911.0000
78.1185	893.0000
78.1390	870.0000
78.1595	867.0000
78.1800	895.0000
78.2004	876.0000
78.2209	970.0000
78.2414	882.0000
78.2619	927.0000
78.2823	931.0000
78.3028	927.0000
78.3233	876.0000
78.3438	937.0000
78.3642	910.0000
78.3847	897.0000
78.4052	854.0000
78.4257	897.0000
78.4461	847.0000
78.4666	896.0000
78.4871	893.0000
78.5076	860.0000
78.5280	893.0000
78.5485	889.0000
78.5690	904.0000
78.5895	919.0000
78.6100	859.0000
78.6304	902.0000
78.6509	922.0000
78.6714	907.0000
78.6919	881.0000
78.7123	877.0000
78.7328	877.0000
78.7533	957.0000
78.7738	892.0000
78.7942	952.0000
78.8147	928.0000
78.8352	880.0000
78.8557	920.0000
78.8761	909.0000
78.8966	870.0000
78.9171	932.0000
78.9376	893.0000
78.9580	947.0000
78.9785	908.0000
78.9990	900.0000
79.0195	837.0000
79.0399	898.0000
79.0604	925.0000
79.0809	901.0000
79.1014	927.0000
79.1218	853.0000
79.1423	857.0000
79.1628	916.0000
79.1833	937.0000
79.2037	922.0000
79.2242	874.0000
79.2447	893.0000
79.2652	923.0000
79.2856	926.0000
79.3061	927.0000
79.3266	862.0000
79.3471	876.0000
79.3676	942.0000
79.3880	899.0000
79.4085	855.0000
79.4290	934.0000
79.4495	890.0000
79.4699	905.0000
79.4904	923.0000
79.5109	890.0000
79.5314	898.0000
79.5518	875.0000
79.5723	932.0000
79.5928	873.0000
79.6133	908.0000
79.6337	927.0000
79.6542	904.0000
79.6747	926.0000
79.6952	881.0000
79.7156	919.0000
79.7361	888.0000
79.7566	876.0000
79.7771	842.0000
79.7975	912.0000
79.8180	855.0000
79.8385	929.0000
79.8590	909.0000
79.8794	877.0000
79.8999	907.0000
79.9204	957.0000
79.9409	886.0000
79.9613	884.0000
79.9818	914.0000
80.0023	891.0000
80.0228	943.0000
80.0432	884.0000
80.0637	953.0000
80.0842	892.0000
80.1047	904.0000
80.1251	896.0000
80.1456	916.0000
80.1661	950.0000
80.1866	971.0000
80.2071	874.0000
80.2275	919.0000
80.2480	923.0000
80.2685	923.0000
80.2890	941.0000
80.3094	916.0000
80.3299	925.0000
80.3504	924.0000
80.3709	883.0000
80.3913	895.0000
80.4118	910.0000
80.4323	933.0000
80.4528	912.0000
80.4732	935.0000
80.4937	928.0000
80.5142	955.0000
80.5347	884.0000
80.5551	958.0000
80.5756	955.0000
80.5961	885.0000
80.6166	867.0000
80.6370	902.0000
80.6575	916.0000
80.6780	920.0000
80.6985	966.0000
80.7189	918.0000
80.7394	927.0000
80.7599	880.0000
80.7804	940.0000
80.8008	924.0000
80.8213	902.0000
80.8418	870.0000
80.8623	862.0000
80.8827	893.0000
80.9032	925.0000
80.9237	928.0000
80.9442	918.0000
80.9647	945.0000
80.9851	921.0000
81.0056	872.0000
81.0261	902.0000
81.0466	867.0000
81.0670	891.0000
81.0875	936.0000
81.1080	907.0000
81.1285	921.0000
81.1489	947.0000
81.1694	923.0000
81.1899	919.0000
81.2104	959.0000
81.2308	927.0000
81.2513	922.0000
81.2718	914.0000
81.2923	961.0000
81.3127	904.0000
81.3332	876.0000
81.3537	1004.0000
81.3742	965.0000
81.3946	959.0000
81.4151	935.0000
81.4356	911.0000
81.4561	909.0000
81.4765	947.0000
81.4970	963.0000
81.5175	946.0000
81.5380	894.0000
81.5584	901.0000
81.5789	952.0000
81.5994	926.0000
81.6199	941.0000
81.6403	907.0000
81.6608	926.0000
81.6813	935.0000
81.7018	954.0000
81.7222	900.0000
81.7427	1002.0000
81.7632	907.0000
81.7837	969.0000
81.8042	937.0000
81.8246	955.0000
81.8451	875.0000
81.8656	917.0000
81.8861	982.0000
81.9065	901.0000
81.9270	972.0000
81.9475	948.0000
81.9680	951.0000
81.9884	921.0000
82.0089	923.0000
82.0294	941.0000
82.0499	931.0000
82.0703	946.0000
82.0908	931.0000
82.1113	907.0000
82.1318	989.0000
82.1522	896.0000
82.1727	977.0000
82.1932	984.0000
82.2137	939.0000
82.2341	951.0000
82.2546	964.0000
82.2751	954.0000
82.2956	931.0000
82.3160	905.0000
82.3365	892.0000
82.3570	922.0000
82.3775	935.0000
82.3979	972.0000
82.4184	930.0000
82.4389	911.0000
82.4594	909.0000
82.4798	957.0000
82.5003	947.0000
82.5208	939.0000
82.5413	979.0000
82.5618	951.0000
82.5822	935.0000
82.6027	969.0000
82.6232	935.0000
82.6437	926.0000
82.6641	945.0000
82.6846	1008.0000
82.7051	944.0000
82.7256	936.0000
82.7460	925.0000
82.7665	905.0000
82.7870	977.0000
82.8075	897.0000
82.8279	958.0000
82.8484	938.0000
82.8689	939.0000
82.8894	915.0000
82.9098	968.0000
82.9303	943.0000
82.9508	966.0000
82.9713	909.0000
82.9917	942.0000
83.0122	944.0000
83.0327	927.0000
83.0532	929.0000
83.0736	938.0000
83.0941	929.0000
83.1146	948.0000
83.1351	943.0000
83.1555	891.0000
83.1760	974.0000
83.1965	934.0000
83.2170	994.0000
83.2374	958.0000
83.2579	987.0000
83.2784	875.0000
83.2989	1001.0000
83.3194	873.0000
83.3398	953.0000
83.3603	943.0000
83.3808	950.0000
83.4013	963.0000
83.4217	952.0000
83.4422	982.0000
83.4627	989.0000
83.4832	948.0000
83.5036	923.0000
83.5241	964.0000
83.5446	948.0000
83.5651	913.0000
83.5855	932.0000
83.6060	950.0000
83.6265	942.0000
83.6470	970.0000
83.6674	969.0000
83.6879	968.0000
83.7084	977.0000
83.7289	934.0000
83.7493	936.0000
83.7698	971.0000
83.7903	988.0000
83.8108	1004.0000
83.8312	946.0000
83.8517	968.0000
83.8722	908.0000
83.8927	938.0000
83.9131	930.0000
83.9336	979.0000
83.9541	928.0000
83.9746	910.0000
83.9950	970.0000
84.0155	903.0000
84.0360	923.0000
84.0565	954.0000
84.0769	960.0000
84.0974	1006.0000
84.1179	933.0000
84.1384	921.0000
84.1589	943.0000
84.1793	953.0000
84.1998	984.0000
84.2203	909.0000
84.2408	962.0000
84.2612	891.0000
84.2817	964.0000
84.3022	896.0000
84.3227	892.0000
84.3431	983.0000
84.3636	923.0000
84.3841	889.0000
84.4046	981.0000
84.4250	994.0000
84.4455	948.0000
84.4660	943.0000
84.4865	908.0000
84.5069	928.0000
84.5274	928.0000
84.5479	938.0000
84.5684	962.0000
84.5888	960.0000
84.6093	931.0000
84.6298	946.0000
84.6503	896.0000
84.6707	990.0000
84.6912	958.0000
84.7117	1017.0000
84.7322	968.0000
84.7526	925.0000
84.7731	963.0000
84.7936	934.0000
84.8141	928.0000
84.8345	942.0000
84.8550	957.0000
84.8755	970.0000
84.8960	904.0000
84.9165	976.0000
84.9369	942.0000
84.9574	928.0000
84.9779	965.0000
84.9984	1010.0000
85.0188	989.0000
85.0393	981.0000
85.0598	1000.0000
85.0803	993.0000
85.1007	996.0000
85.1212	976.0000
85.1417	979.0000
85.1622	961.0000
85.1826	972.0000
85.2031	994.0000
85.2236	904.0000
85.2441	990.0000
85.2645	943.0000
85.2850	961.0000
85.3055	965.0000
85.3260	965.0000
85.3464	919.0000
85.3669	1002.0000
85.3874	942.0000
85.4079	975.0000
85.4283	932.0000
85.4488	940.0000
85.4693	899.0000
85.4898	936.0000
85.5102	937.0000
85.5307	971.0000
85.5512	944.0000
85.5717	891.0000
85.5921	969.0000
85.6126	958.0000
85.6331	929.0000
85.6536	979.0000
85.6740	951.0000
85.6945	944.0000
85.7150	948.0000
85.7355	957.0000
85.7560	938.0000
85.7764	946.0000
85.7969	948.0000
85.8174	948.0000
85.8379	950.0000
85.8583	990.0000
85.8788	964.0000
85.8993	1001.0000
85.9198	978.0000
85.9402	937.0000
85.9607	996.0000
85.9812	966.0000
86.0017	948.0000
86.0221	965.0000
86.0426	1017.0000
86.0631	918.0000
86.0836	952.0000
86.1040	945.0000
86.1245	977.0000
86.1450	989.0000
86.1655	962.0000
86.1859	967.0000
86.2064	954.0000
86.2269	959.0000
86.2474	933.0000
86.2678	994.0000
86.2883	939.0000
86.3088	1004.0000
86.3293	1015.0000
86.3497	1001.0000
86.3702	1012.0000
86.3907	980.0000
86.4112	940.0000
86.4316	941.0000
86.4521	982.0000
86.4726	953.0000
86.4931	954.0000
86.5136	1007.0000
86.5340	928.0000
86.5545	977.0000
86.5750	1026.0000
86.5955	982.0000
86.6159	971.0000
86.6364	994.0000
86.6569	902.0000
86.6774	936.0000
86.6978	967.0000
86.7183	928.0000
86.7388	958.0000
86.7593	916.0000
86.7797	999.0000
86.8002	923.0000
86.8207	982.0000
86.8412	951.0000
86.8616	967.0000
86.8821	995.0000
86.9026	912.0000
86.9231	949.0000
86.9435	981.0000
86.9640	989.0000
86.9845	939.0000
87.0050	958.0000
87.0254	943.0000
87.0459	952.0000
87.0664	893.0000
87.0869	923.0000
87.1073	990.0000
87.1278	979.0000
87.1483	900.0000
87.1688	973.0000
87.1892	967.0000
87.2097	915.0000
87.2302	959.0000
87.2507	1010.0000
87.2712	947.0000
87.2916	1033.0000
87.3121	946.0000
87.3326	983.0000
87.3531	971.0000
87.3735	969.0000
87.3940	953.0000
87.4145	985.0000
87.4350	947.0000
87.4554	951.0000
87.4759	954.0000
87.4964	937.0000
87.5169	940.0000
87.5373	936.0000
87.5578	958.0000
87.5783	944.0000
87.5988	942.0000
87.6192	935.0000
87.6397	1011.0000
87.6602	932.0000
87.6807	969.0000
87.7011	962.0000
87.7216	938.0000
87.7421	975.0000
87.7626	938.0000
87.7830	943.0000
87.8035	998.0000
87.8240	951.0000
87.8445	973.0000
87.8649	960.0000
87.8854	947.0000
87.9059	977.0000
87.9264	969.0000
87.9468	895.0000
87.9673	896.0000
87.9878	939.0000
88.0083	1001.0000
88.0287	930.0000
88.0492	992.0000
88.0697	919.0000
88.0902	922.0000
88.1107	953.0000
88.1311	884.0000
88.1516	916.0000
88.1721	922.0000
88.1926	948.0000
88.2130	953.0000
88.2335	1005.0000
88.2540	998.0000
88.2745	942.0000
88.2949	911.0000
88.3154	915.0000
88.3359	980.0000
88.3564	924.0000
88.3768	991.0000
88.3973	934.0000
88.4178	954.0000
88.4383	959.0000
88.4587	947.0000
88.4792	941.0000
88.4997	1040.0000
88.5202	946.0000
88.5406	948.0000
88.5611	981.0000
88.5816	969.0000
88.6021	967.0000
88.6225	929.0000
88.6430	896.0000
88.6635	931.0000
88.6840	946.0000
88.7044	940.0000
88.7249	928.0000
88.7454	950.0000
88.7659	931.0000
88.7863	925.0000
88.8068	945.0000
88.8273	938.0000
88.8478	965.0000
88.8683	941.0000
88.8887	1012.0000
88.9092	912.0000
88.9297	909.0000
88.9502	976.0000
88.9706	931.0000
88.9911	925.0000
89.0116	977.0000
89.0321	937.0000
89.0525	984.0000
89.0730	1019.0000
89.0935	896.0000
89.1140	939.0000
89.1344	916.0000
89.1549	894.0000
89.1754	974.0000
89.1959	955.0000
89.2163	934.0000
89.2368	955.0000
89.2573	890.0000
89.2778	948.0000
89.2982	967.0000
89.3187	1010.0000
89.3392	978.0000
89.3597	975.0000
89.3801	954.0000
89.4006	921.0000
89.4211	923.0000
89.4416	1005.0000
89.4620	904.0000
89.4825	986.0000
89.5030	952.0000
89.5235	952.0000
89.5439	889.0000
89.5644	935.0000
89.5849	968.0000
89.6054	874.0000
89.6258	880.0000
89.6463	887.0000
89.6668	916.0000
89.6873	931.0000
89.7078	981.0000
89.7282	917.0000
89.7487	945.0000
89.7692	954.0000
89.7897	952.0000
89.8101	909.0000
89.8306	933.0000
89.8511	962.0000
89.8716	963.0000
89.8920	977.0000
89.9125	917.0000
89.9330	994.0000
89.9535	978.0000
89.9739	896.0000
89.9944	932.0000
