5.0001	1494.0000
5.0206	1451.0000
5.0411	1448.0000
5.0615	1440.0000
5.0820	1405.0000
5.1025	1465.0000
5.1230	1452.0000
5.1434	1420.0000
5.1639	1417.0000
5.1844	1443.0000
5.2049	1340.0000
5.2253	1412.0000
5.2458	1324.0000
5.2663	1356.0000
5.2868	1312.0000
5.3072	1307.0000
5.3277	1317.0000
5.3482	1246.0000
5.3687	1343.0000
5.3891	1283.0000
5.4096	1313.0000
5.4301	1346.0000
5.4506	1323.0000
5.4710	1262.0000
5.4915	1273.0000
5.5120	1267.0000
5.5325	1232.0000
5.5529	1234.0000
5.5734	1228.0000
5.5939	1160.0000
5.6144	1200.0000
5.6348	1182.0000
5.6553	1147.0000
5.6758	1204.0000
5.6963	1207.0000
5.7167	1157.0000
5.7372	1117.0000
5.7577	1132.0000
5.7782	1153.0000
5.7987	1146.0000
5.8191	1150.0000
5.8396	1092.0000
5.8601	1125.0000
5.8806	1081.0000
5.9010	1084.0000
5.9215	1046.0000
5.9420	1078.0000
5.9625	1070.0000
5.9829	1076.0000
6.0034	1049.0000
6.0239	1073.0000
6.0444	1037.0000
6.0648	1013.0000
6.0853	1093.0000
6.1058	999.0000
6.1263	1067.0000
6.1467	1001.0000
6.1672	909.0000
6.1877	948.0000
6.2082	965.0000
6.2286	962.0000
6.2491	1032.0000
6.2696	977.0000
6.2901	938.0000
6.3105	993.0000
6.3310	905.0000
6.3515	950.0000
6.3720	890.0000
6.3924	914.0000
6.4129	943.0000
6.4334	918.0000
6.4539	901.0000
6.4743	921.0000
6.4948	914.0000
6.5153	882.0000
6.5358	834.0000
6.5562	808.0000
6.5767	869.0000
6.5972	816.0000
6.6177	856.0000
6.6382	887.0000
6.6586	828.0000
6.6791	834.0000
6.6996	792.0000
6.7201	814.0000
6.7405	819.0000
6.7610	809.0000
6.7815	781.0000
6.8020	805.0000
6.8224	783.0000
6.8429	787.0000
6.8634	718.0000
6.8839	794.0000
6.9043	705.0000
6.9248	768.0000
6.9453	760.0000
6.9658	720.0000
6.9862	732.0000
7.0067	723.0000
7.0272	724.0000
7.0477	738.0000
7.0681	759.0000
7.0886	712.0000
7.1091	777.0000
7.1296	667.0000
7.1500	682.0000
7.1705	716.0000
7.1910	684.0000
7.2115	707.0000
7.2319	666.0000
7.2524	619.0000
7.2729	703.0000
7.2934	671.0000
7.3138	690.0000
7.3343	658.0000
7.3548	652.0000
7.3753	643.0000
7.3958	647.0000
7.4162	644.0000
7.4367	632.0000
7.4572	630.0000
7.4777	613.0000
7.4981	623.0000
7.5186	618.0000
7.5391	622.0000
7.5596	577.0000
7.5800	582.0000
7.6005	608.0000
7.6210	578.0000
7.6415	586.0000
7.6619	560.0000
7.6824	592.0000
7.7029	600.0000
7.7234	570.0000
7.7438	550.0000
7.7643	519.0000
7.7848	561.0000
7.8053	587.0000
7.8257	554.0000
7.8462	546.0000
7.8667	585.0000
7.8872	553.0000
7.9076	541.0000
7.9281	541.0000
7.9486	569.0000
7.9691	521.0000
7.9895	537.0000
8.0100	535.0000
8.0305	570.0000
8.0510	482.0000
8.0714	499.0000
8.0919	536.0000
8.1124	523.0000
8.1329	488.0000
8.1533	519.0000
8.1738	527.0000
8.1943	521.0000
8.2148	516.0000
8.2353	468.0000
8.2557	496.0000
8.2762	545.0000
8.2967	495.0000
8.3172	498.0000
8.3376	458.0000
8.3581	502.0000
8.3786	485.0000
8.3991	494.0000
8.4195	471.0000
8.4400	508.0000
8.4605	462.0000
8.4810	476.0000
8.5014	420.0000
8.5219	517.0000
8.5424	536.0000
8.5629	436.0000
8.5833	476.0000
8.6038	475.0000
8.6243	488.0000
8.6448	493.0000
8.6652	470.0000
8.6857	479.0000
8.7062	502.0000
8.7267	474.0000
8.7471	462.0000
8.7676	408.0000
8.7881	439.0000
8.8086	460.0000
8.8290	456.0000
8.8495	487.0000
8.8700	462.0000
8.8905	446.0000
8.9109	405.0000
8.9314	440.0000
8.9519	459.0000
8.9724	447.0000
8.9929	454.0000
9.0133	437.0000
9.0338	462.0000
9.0543	416.0000
9.0748	433.0000
9.0952	448.0000
9.1157	426.0000
9.1362	459.0000
9.1567	475.0000
9.1771	451.0000
9.1976	443.0000
9.2181	440.0000
9.2386	426.0000
9.2590	416.0000
9.2795	451.0000
9.3000	424.0000
9.3205	432.0000
9.3409	421.0000
9.3614	439.0000
9.3819	424.0000
9.4024	418.0000
9.4228	411.0000
9.4433	425.0000
9.4638	455.0000
9.4843	482.0000
9.5047	447.0000
9.5252	457.0000
9.5457	447.0000
9.5662	408.0000
9.5866	412.0000
9.6071	402.0000
9.6276	431.0000
9.6481	425.0000
9.6685	440.0000
9.6890	416.0000
9.7095	398.0000
9.7300	448.0000
9.7505	417.0000
9.7709	405.0000
9.7914	401.0000
9.8119	423.0000
9.8324	401.0000
9.8528	451.0000
9.8733	425.0000
9.8938	370.0000
9.9143	426.0000
9.9347	408.0000
9.9552	394.0000
9.9757	363.0000
9.9962	424.0000
10.0166	430.0000
10.0371	435.0000
10.0576	441.0000
10.0781	400.0000
10.0985	468.0000
10.1190	421.0000
10.1395	413.0000
10.1600	392.0000
10.1804	387.0000
10.2009	409.0000
10.2214	399.0000
10.2419	391.0000
10.2623	391.0000
10.2828	424.0000
10.3033	400.0000
10.3238	418.0000
10.3442	436.0000
10.3647	396.0000
10.3852	451.0000
10.4057	409.0000
10.4261	408.0000
10.4466	386.0000
10.4671	416.0000
10.4876	421.0000
10.5080	390.0000
10.5285	400.0000
10.5490	393.0000
10.5695	398.0000
10.5900	402.0000
10.6104	435.0000
10.6309	398.0000
10.6514	404.0000
10.6719	373.0000
10.6923	390.0000
10.7128	408.0000
10.7333	444.0000
10.7538	407.0000
10.7742	425.0000
10.7947	381.0000
10.8152	410.0000
10.8357	409.0000
10.8561	395.0000
10.8766	451.0000
10.8971	379.0000
10.9176	387.0000
10.9380	396.0000
10.9585	424.0000
10.9790	438.0000
10.9995	424.0000
11.0199	375.0000
11.0404	396.0000
11.0609	422.0000
11.0814	472.0000
11.1018	391.0000
11.1223	387.0000
11.1428	389.0000
11.1633	428.0000
11.1837	414.0000
11.2042	379.0000
11.2247	395.0000
11.2452	405.0000
11.2656	371.0000
11.2861	400.0000
11.3066	412.0000
11.3271	399.0000
11.3476	361.0000
11.3680	393.0000
11.3885	427.0000
11.4090	383.0000
11.4295	419.0000
11.4499	391.0000
11.4704	411.0000
11.4909	380.0000
11.5114	402.0000
11.5318	402.0000
11.5523	399.0000
11.5728	398.0000
11.5933	395.0000
11.6137	388.0000
11.6342	386.0000
11.6547	390.0000
11.6752	409.0000
11.6956	389.0000
11.7161	372.0000
11.7366	371.0000
11.7571	437.0000
11.7775	378.0000
11.7980	424.0000
11.8185	372.0000
11.8390	387.0000
11.8594	379.0000
11.8799	386.0000
11.9004	418.0000
11.9209	406.0000
11.9413	404.0000
11.9618	394.0000
11.9823	389.0000
12.0028	412.0000
12.0232	424.0000
12.0437	392.0000
12.0642	365.0000
12.0847	359.0000
12.1051	411.0000
12.1256	403.0000
12.1461	387.0000
12.1666	396.0000
12.1871	422.0000
12.2075	399.0000
12.2280	395.0000
12.2485	414.0000
12.2690	419.0000
12.2894	391.0000
12.3099	401.0000
12.3304	397.0000
12.3509	423.0000
12.3713	374.0000
12.3918	437.0000
12.4123	395.0000
12.4328	404.0000
12.4532	415.0000
12.4737	418.0000
12.4942	402.0000
12.5147	370.0000
12.5351	445.0000
12.5556	378.0000
12.5761	449.0000
12.5966	421.0000
12.6170	397.0000
12.6375	413.0000
12.6580	402.0000
12.6785	396.0000
12.6989	455.0000
12.7194	417.0000
12.7399	436.0000
12.7604	391.0000
12.7808	419.0000
12.8013	383.0000
12.8218	390.0000
12.8423	408.0000
12.8627	398.0000
12.8832	429.0000
12.9037	451.0000
12.9242	397.0000
12.9447	400.0000
12.9651	385.0000
12.9856	408.0000
13.0061	400.0000
13.0266	405.0000
13.0470	420.0000
13.0675	435.0000
13.0880	409.0000
13.1085	439.0000
13.1289	389.0000
13.1494	363.0000
13.1699	426.0000
13.1904	413.0000
13.2108	395.0000
13.2313	441.0000
13.2518	414.0000
13.2723	422.0000
13.2927	427.0000
13.3132	423.0000
13.3337	405.0000
13.3542	397.0000
13.3746	425.0000
13.3951	409.0000
13.4156	461.0000
13.4361	413.0000
13.4565	420.0000
13.4770	427.0000
13.4975	419.0000
13.5180	395.0000
13.5384	451.0000
13.5589	417.0000
13.5794	398.0000
13.5999	439.0000
13.6203	395.0000
13.6408	421.0000
13.6613	401.0000
13.6818	407.0000
13.7023	390.0000
13.7227	381.0000
13.7432	400.0000
13.7637	417.0000
13.7842	420.0000
13.8046	420.0000
13.8251	420.0000
13.8456	404.0000
13.8661	415.0000
13.8865	448.0000
13.9070	438.0000
13.9275	456.0000
13.9480	421.0000
13.9684	423.0000
13.9889	369.0000
14.0094	415.0000
14.0299	403.0000
14.0503	425.0000
14.0708	456.0000
14.0913	465.0000
14.1118	407.0000
14.1322	406.0000
14.1527	394.0000
14.1732	409.0000
14.1937	416.0000
14.2141	427.0000
14.2346	453.0000
14.2551	415.0000
14.2756	430.0000
14.2960	439.0000
14.3165	429.0000
14.3370	414.0000
14.3575	402.0000
14.3779	438.0000
14.3984	480.0000
14.4189	414.0000
14.4394	424.0000
14.4598	413.0000
14.4803	434.0000
14.5008	440.0000
14.5213	456.0000
14.5418	428.0000
14.5622	441.0000
14.5827	440.0000
14.6032	435.0000
14.6237	477.0000
14.6441	444.0000
14.6646	439.0000
14.6851	418.0000
14.7056	446.0000
14.7260	443.0000
14.7465	445.0000
14.7670	380.0000
14.7875	445.0000
14.8079	443.0000
14.8284	422.0000
14.8489	421.0000
14.8694	407.0000
14.8898	472.0000
14.9103	421.0000
14.9308	439.0000
14.9513	404.0000
14.9717	438.0000
14.9922	459.0000
15.0127	430.0000
15.0332	460.0000
15.0536	456.0000
15.0741	452.0000
15.0946	415.0000
15.1151	425.0000
15.1355	452.0000
15.1560	447.0000
15.1765	433.0000
15.1970	437.0000
15.2174	452.0000
15.2379	467.0000
15.2584	433.0000
15.2789	407.0000
15.2994	428.0000
15.3198	464.0000
15.3403	438.0000
15.3608	429.0000
15.3813	395.0000
15.4017	459.0000
15.4222	453.0000
15.4427	445.0000
15.4632	486.0000
15.4836	412.0000
15.5041	443.0000
15.5246	465.0000
15.5451	420.0000
15.5655	431.0000
15.5860	421.0000
15.6065	467.0000
15.6270	457.0000
15.6474	495.0000
15.6679	418.0000
15.6884	412.0000
15.7089	474.0000
15.7293	421.0000
15.7498	479.0000
15.7703	438.0000
15.7908	421.0000
15.8112	462.0000
15.8317	450.0000
15.8522	435.0000
15.8727	449.0000
15.8931	460.0000
15.9136	432.0000
15.9341	453.0000
15.9546	462.0000
15.9750	422.0000
15.9955	479.0000
16.0160	455.0000
16.0365	410.0000
16.0569	440.0000
16.0774	483.0000
16.0979	487.0000
16.1184	504.0000
16.1389	469.0000
16.1593	478.0000
16.1798	494.0000
16.2003	457.0000
16.2208	444.0000
16.2412	501.0000
16.2617	491.0000
16.2822	468.0000
16.3027	500.0000
16.3231	506.0000
16.3436	488.0000
16.3641	482.0000
16.3846	439.0000
16.4050	481.0000
16.4255	462.0000
16.4460	461.0000
16.4665	454.0000
16.4869	461.0000
16.5074	483.0000
16.5279	464.0000
16.5484	482.0000
16.5688	468.0000
16.5893	418.0000
16.6098	461.0000
16.6303	478.0000
16.6507	497.0000
16.6712	443.0000
16.6917	450.0000
16.7122	458.0000
16.7326	447.0000
16.7531	449.0000
16.7736	455.0000
16.7941	423.0000
16.8145	473.0000
16.8350	450.0000
16.8555	480.0000
16.8760	530.0000
16.8965	494.0000
16.9169	465.0000
16.9374	492.0000
16.9579	461.0000
16.9784	453.0000
16.9988	447.0000
17.0193	438.0000
17.0398	443.0000
17.0603	456.0000
17.0807	478.0000
17.1012	460.0000
17.1217	457.0000
17.1422	469.0000
17.1626	481.0000
17.1831	470.0000
17.2036	483.0000
17.2241	473.0000
17.2445	428.0000
17.2650	499.0000
17.2855	491.0000
17.3060	489.0000
17.3264	454.0000
17.3469	476.0000
17.3674	504.0000
17.3879	475.0000
17.4083	499.0000
17.4288	465.0000
17.4493	470.0000
17.4698	469.0000
17.4902	469.0000
17.5107	496.0000
17.5312	517.0000
17.5517	513.0000
17.5721	457.0000
17.5926	482.0000
17.6131	464.0000
17.6336	463.0000
17.6540	481.0000
17.6745	502.0000
17.6950	443.0000
17.7155	463.0000
17.7360	472.0000
17.7564	441.0000
17.7769	501.0000
17.7974	437.0000
17.8179	507.0000
17.8383	471.0000
17.8588	483.0000
17.8793	493.0000
17.8998	473.0000
17.9202	498.0000
17.9407	525.0000
17.9612	476.0000
17.9817	521.0000
18.0021	468.0000
18.0226	464.0000
18.0431	505.0000
18.0636	483.0000
18.0840	472.0000
18.1045	464.0000
18.1250	525.0000
18.1455	511.0000
18.1659	503.0000
18.1864	490.0000
18.2069	501.0000
18.2274	494.0000
18.2478	514.0000
18.2683	514.0000
18.2888	524.0000
18.3093	488.0000
18.3297	470.0000
18.3502	515.0000
18.3707	512.0000
18.3912	527.0000
18.4116	500.0000
18.4321	478.0000
18.4526	484.0000
18.4731	475.0000
18.4936	508.0000
18.5140	474.0000
18.5345	502.0000
18.5550	507.0000
18.5755	451.0000
18.5959	507.0000
18.6164	469.0000
18.6369	486.0000
18.6574	490.0000
18.6778	506.0000
18.6983	487.0000
18.7188	510.0000
18.7393	463.0000
18.7597	514.0000
18.7802	492.0000
18.8007	460.0000
18.8212	462.0000
18.8416	503.0000
18.8621	555.0000
18.8826	486.0000
18.9031	466.0000
18.9235	513.0000
18.9440	492.0000
18.9645	499.0000
18.9850	460.0000
19.0054	490.0000
19.0259	478.0000
19.0464	504.0000
19.0669	495.0000
19.0873	485.0000
19.1078	469.0000
19.1283	512.0000
19.1488	481.0000
19.1692	526.0000
19.1897	488.0000
19.2102	477.0000
19.2307	512.0000
19.2512	491.0000
19.2716	506.0000
19.2921	456.0000
19.3126	477.0000
19.3331	465.0000
19.3535	520.0000
19.3740	509.0000
19.3945	513.0000
19.4150	480.0000
19.4354	475.0000
19.4559	501.0000
19.4764	484.0000
19.4969	491.0000
19.5173	485.0000
19.5378	504.0000
19.5583	479.0000
19.5788	515.0000
19.5992	548.0000
19.6197	503.0000
19.6402	483.0000
19.6607	482.0000
19.6811	513.0000
19.7016	523.0000
19.7221	511.0000
19.7426	505.0000
19.7630	506.0000
19.7835	541.0000
19.8040	472.0000
19.8245	487.0000
19.8449	496.0000
19.8654	494.0000
19.8859	527.0000
19.9064	499.0000
19.9268	489.0000
19.9473	499.0000
19.9678	488.0000
19.9883	525.0000
20.0087	500.0000
20.0292	518.0000
20.0497	463.0000
20.0702	501.0000
20.0907	497.0000
20.1111	495.0000
20.1316	481.0000
20.1521	523.0000
20.1726	536.0000
20.1930	498.0000
20.2135	484.0000
20.2340	543.0000
20.2545	545.0000
20.2749	523.0000
20.2954	514.0000
20.3159	516.0000
20.3364	495.0000
20.3568	511.0000
20.3773	504.0000
20.3978	531.0000
20.4183	529.0000
20.4387	519.0000
20.4592	534.0000
20.4797	503.0000
20.5002	509.0000
20.5206	490.0000
20.5411	527.0000
20.5616	508.0000
20.5821	513.0000
20.6025	543.0000
20.6230	490.0000
20.6435	528.0000
20.6640	532.0000
20.6844	499.0000
20.7049	512.0000
20.7254	474.0000
20.7459	512.0000
20.7663	550.0000
20.7868	542.0000
20.8073	559.0000
20.8278	491.0000
20.8483	478.0000
20.8687	506.0000
20.8892	504.0000
20.9097	509.0000
20.9302	509.0000
20.9506	535.0000
20.9711	513.0000
20.9916	489.0000
21.0121	479.0000
21.0325	564.0000
21.0530	513.0000
21.0735	521.0000
21.0940	526.0000
21.1144	503.0000
21.1349	482.0000
21.1554	522.0000
21.1759	488.0000
21.1963	521.0000
21.2168	555.0000
21.2373	548.0000
21.2578	509.0000
21.2782	510.0000
21.2987	563.0000
21.3192	553.0000
21.3397	517.0000
21.3601	518.0000
21.3806	532.0000
21.4011	547.0000
21.4216	534.0000
21.4420	529.0000
21.4625	509.0000
21.4830	498.0000
21.5035	510.0000
21.5239	545.0000
21.5444	483.0000
21.5649	531.0000
21.5854	547.0000
21.6058	552.0000
21.6263	564.0000
21.6468	553.0000
21.6673	538.0000
21.6878	521.0000
21.7082	534.0000
21.7287	501.0000
21.7492	503.0000
21.7697	532.0000
21.7901	511.0000
21.8106	544.0000
21.8311	546.0000
21.8516	528.0000
21.8720	565.0000
21.8925	547.0000
21.9130	569.0000
21.9335	546.0000
21.9539	508.0000
21.9744	564.0000
21.9949	547.0000
22.0154	547.0000
22.0358	580.0000
22.0563	560.0000
22.0768	572.0000
22.0973	500.0000
22.1177	556.0000
22.1382	531.0000
22.1587	529.0000
22.1792	569.0000
22.1996	565.0000
22.2201	538.0000
22.2406	580.0000
22.2611	541.0000
22.2815	603.0000
22.3020	522.0000
22.3225	585.0000
22.3430	575.0000
22.3634	612.0000
22.3839	519.0000
22.4044	540.0000
22.4249	541.0000
22.4454	536.0000
22.4658	552.0000
22.4863	516.0000
22.5068	573.0000
22.5273	525.0000
22.5477	523.0000
22.5682	565.0000
22.5887	565.0000
22.6092	545.0000
22.6296	542.0000
22.6501	540.0000
22.6706	553.0000
22.6911	547.0000
22.7115	517.0000
22.7320	570.0000
22.7525	563.0000
22.7730	590.0000
22.7934	602.0000
22.8139	554.0000
22.8344	528.0000
22.8549	593.0000
22.8753	561.0000
22.8958	596.0000
22.9163	611.0000
22.9368	554.0000
22.9572	583.0000
22.9777	573.0000
22.9982	602.0000
23.0187	554.0000
23.0391	585.0000
23.0596	565.0000
23.0801	593.0000
23.1006	592.0000
23.1210	615.0000
23.1415	575.0000
23.1620	594.0000
23.1825	611.0000
23.2030	573.0000
23.2234	599.0000
23.2439	605.0000
23.2644	607.0000
23.2849	593.0000
23.3053	584.0000
23.3258	595.0000
23.3463	630.0000
23.3668	602.0000
23.3872	640.0000
23.4077	644.0000
23.4282	607.0000
23.4487	576.0000
23.4691	637.0000
23.4896	629.0000
23.5101	613.0000
23.5306	618.0000
23.5510	610.0000
23.5715	593.0000
23.5920	612.0000
23.6125	671.0000
23.6329	651.0000
23.6534	582.0000
23.6739	665.0000
23.6944	613.0000
23.7148	655.0000
23.7353	646.0000
23.7558	665.0000
23.7763	667.0000
23.7967	643.0000
23.8172	663.0000
23.8377	648.0000
23.8582	661.0000
23.8786	714.0000
23.8991	637.0000
23.9196	687.0000
23.9401	688.0000
23.9605	632.0000
23.9810	642.0000
24.0015	661.0000
24.0220	702.0000
24.0425	717.0000
24.0629	659.0000
24.0834	717.0000
24.1039	689.0000
24.1244	709.0000
24.1448	697.0000
24.1653	659.0000
24.1858	750.0000
24.2063	776.0000
24.2267	766.0000
24.2472	698.0000
24.2677	737.0000
24.2882	816.0000
24.3086	740.0000
24.3291	765.0000
24.3496	747.0000
24.3701	725.0000
24.3905	689.0000
24.4110	721.0000
24.4315	692.0000
24.4520	732.0000
24.4724	706.0000
24.4929	736.0000
24.5134	680.0000
24.5339	704.0000
24.5543	660.0000
24.5748	681.0000
24.5953	611.0000
24.6158	675.0000
24.6362	636.0000
24.6567	621.0000
24.6772	677.0000
24.6977	655.0000
24.7181	630.0000
24.7386	617.0000
24.7591	675.0000
24.7796	652.0000
24.8001	643.0000
24.8205	600.0000
24.8410	607.0000
24.8615	633.0000
24.8820	625.0000
24.9024	634.0000
24.9229	620.0000
24.9434	620.0000
24.9639	601.0000
24.9843	616.0000
25.0048	612.0000
25.0253	582.0000
25.0458	591.0000
25.0662	599.0000
25.0867	581.0000
25.1072	620.0000
25.1277	617.0000
25.1481	616.0000
25.1686	616.0000
25.1891	653.0000
25.2096	627.0000
25.2300	605.0000
25.2505	597.0000
25.2710	591.0000
25.2915	627.0000
25.3119	601.0000
25.3324	589.0000
25.3529	594.0000
25.3734	642.0000
25.3938	632.0000
25.4143	632.0000
25.4348	595.0000
25.4553	630.0000
25.4757	562.0000
25.4962	582.0000
25.5167	551.0000
25.5372	540.0000
25.5576	595.0000
25.5781	619.0000
25.5986	564.0000
25.6191	584.0000
25.6396	600.0000
25.6600	542.0000
25.6805	557.0000
25.7010	621.0000
25.7215	541.0000
25.7419	587.0000
25.7624	551.0000
25.7829	617.0000
25.8034	601.0000
25.8238	580.0000
25.8443	602.0000
25.8648	563.0000
25.8853	564.0000
25.9057	555.0000
25.9262	580.0000
25.9467	558.0000
25.9672	609.0000
25.9876	584.0000
26.0081	600.0000
26.0286	603.0000
26.0491	599.0000
26.0695	588.0000
26.0900	533.0000
26.1105	581.0000
26.1310	602.0000
26.1514	595.0000
26.1719	596.0000
26.1924	549.0000
26.2129	581.0000
26.2333	559.0000
26.2538	585.0000
26.2743	589.0000
26.2948	600.0000
26.3152	565.0000
26.3357	577.0000
26.3562	566.0000
26.3767	572.0000
26.3972	574.0000
26.4176	587.0000
26.4381	537.0000
26.4586	567.0000
26.4791	567.0000
26.4995	585.0000
26.5200	537.0000
26.5405	616.0000
26.5610	618.0000
26.5814	563.0000
26.6019	566.0000
26.6224	569.0000
26.6429	548.0000
26.6633	572.0000
26.6838	555.0000
26.7043	627.0000
26.7248	517.0000
26.7452	530.0000
26.7657	597.0000
26.7862	543.0000
26.8067	528.0000
26.8271	599.0000
26.8476	519.0000
26.8681	574.0000
26.8886	575.0000
26.9090	574.0000
26.9295	565.0000
26.9500	568.0000
26.9705	539.0000
26.9909	498.0000
27.0114	542.0000
27.0319	539.0000
27.0524	585.0000
27.0728	570.0000
27.0933	475.0000
27.1138	534.0000
27.1343	572.0000
27.1548	542.0000
27.1752	548.0000
27.1957	573.0000
27.2162	556.0000
27.2367	499.0000
27.2571	547.0000
27.2776	551.0000
27.2981	522.0000
27.3186	520.0000
27.3390	563.0000
27.3595	564.0000
27.3800	546.0000
27.4005	568.0000
27.4209	554.0000
27.4414	551.0000
27.4619	541.0000
27.4824	525.0000
27.5028	577.0000
27.5233	571.0000
27.5438	532.0000
27.5643	509.0000
27.5847	505.0000
27.6052	552.0000
27.6257	558.0000
27.6462	558.0000
27.6666	527.0000
27.6871	558.0000
27.7076	526.0000
27.7281	557.0000
27.7485	561.0000
27.7690	520.0000
27.7895	532.0000
27.8100	571.0000
27.8304	572.0000
27.8509	548.0000
27.8714	541.0000
27.8919	523.0000
27.9123	570.0000
27.9328	543.0000
27.9533	519.0000
27.9738	501.0000
27.9943	538.0000
28.0147	542.0000
28.0352	508.0000
28.0557	548.0000
28.0762	577.0000
28.0966	566.0000
28.1171	546.0000
28.1376	555.0000
28.1581	554.0000
28.1785	538.0000
28.1990	527.0000
28.2195	501.0000
28.2400	518.0000
28.2604	494.0000
28.2809	575.0000
28.3014	586.0000
28.3219	539.0000
28.3423	602.0000
28.3628	577.0000
28.3833	557.0000
28.4038	564.0000
28.4242	554.0000
28.4447	523.0000
28.4652	547.0000
28.4857	546.0000
28.5061	548.0000
28.5266	577.0000
28.5471	556.0000
28.5676	576.0000
28.5880	543.0000
28.6085	575.0000
28.6290	571.0000
28.6495	576.0000
28.6699	539.0000
28.6904	563.0000
28.7109	573.0000
28.7314	546.0000
28.7519	559.0000
28.7723	529.0000
28.7928	557.0000
28.8133	569.0000
28.8338	585.0000
28.8542	515.0000
28.8747	542.0000
28.8952	526.0000
28.9157	557.0000
28.9361	551.0000
28.9566	526.0000
28.9771	524.0000
28.9976	572.0000
29.0180	581.0000
29.0385	558.0000
29.0590	566.0000
29.0795	566.0000
29.0999	566.0000
29.1204	540.0000
29.1409	513.0000
29.1614	569.0000
29.1818	547.0000
29.2023	577.0000
29.2228	594.0000
29.2433	557.0000
29.2637	511.0000
29.2842	575.0000
29.3047	572.0000
29.3252	549.0000
29.3456	564.0000
29.3661	542.0000
29.3866	589.0000
29.4071	548.0000
29.4275	591.0000
29.4480	566.0000
29.4685	555.0000
29.4890	620.0000
29.5094	552.0000
29.5299	553.0000
29.5504	543.0000
29.5709	539.0000
29.5914	532.0000
29.6118	553.0000
29.6323	555.0000
29.6528	549.0000
29.6733	560.0000
29.6937	610.0000
29.7142	571.0000
29.7347	558.0000
29.7552	579.0000
29.7756	567.0000
29.7961	534.0000
29.8166	549.0000
29.8371	600.0000
29.8575	546.0000
29.8780	541.0000
29.8985	578.0000
29.9190	576.0000
29.9394	626.0000
29.9599	558.0000
29.9804	567.0000
30.0009	570.0000
30.0213	540.0000
30.0418	530.0000
30.0623	545.0000
30.0828	546.0000
30.1032	561.0000
30.1237	592.0000
30.1442	553.0000
30.1647	554.0000
30.1851	561.0000
30.2056	546.0000
30.2261	552.0000
30.2466	544.0000
30.2670	582.0000
30.2875	600.0000
30.3080	548.0000
30.3285	560.0000
30.3490	588.0000
30.3694	589.0000
30.3899	548.0000
30.4104	568.0000
30.4309	566.0000
30.4513	540.0000
30.4718	574.0000
30.4923	572.0000
30.5128	546.0000
30.5332	548.0000
30.5537	530.0000
30.5742	586.0000
30.5947	599.0000
30.6151	588.0000
30.6356	561.0000
30.6561	568.0000
30.6766	558.0000
30.6970	572.0000
30.7175	567.0000
30.7380	599.0000
30.7585	561.0000
30.7789	621.0000
30.7994	589.0000
30.8199	631.0000
30.8404	587.0000
30.8608	578.0000
30.8813	557.0000
30.9018	561.0000
30.9223	534.0000
30.9427	594.0000
30.9632	546.0000
30.9837	537.0000
31.0042	545.0000
31.0246	601.0000
31.0451	578.0000
31.0656	592.0000
31.0861	574.0000
31.1066	550.0000
31.1270	576.0000
31.1475	594.0000
31.1680	576.0000
31.1885	580.0000
31.2089	559.0000
31.2294	492.0000
31.2499	571.0000
31.2704	582.0000
31.2908	561.0000
31.3113	583.0000
31.3318	583.0000
31.3523	542.0000
31.3727	582.0000
31.3932	575.0000
31.4137	541.0000
31.4342	587.0000
31.4546	547.0000
31.4751	587.0000
31.4956	570.0000
31.5161	584.0000
31.5365	554.0000
31.5570	567.0000
31.5775	571.0000
31.5980	558.0000
31.6184	533.0000
31.6389	541.0000
31.6594	565.0000
31.6799	597.0000
31.7003	578.0000
31.7208	515.0000
31.7413	610.0000
31.7618	606.0000
31.7822	581.0000
31.8027	542.0000
31.8232	605.0000
31.8437	587.0000
31.8641	584.0000
31.8846	573.0000
31.9051	586.0000
31.9256	605.0000
31.9461	591.0000
31.9665	589.0000
31.9870	579.0000
32.0075	635.0000
32.0280	614.0000
32.0484	563.0000
32.0689	575.0000
32.0894	620.0000
32.1099	557.0000
32.1303	549.0000
32.1508	584.0000
32.1713	667.0000
32.1918	594.0000
32.2122	636.0000
32.2327	596.0000
32.2532	630.0000
32.2737	615.0000
32.2941	641.0000
32.3146	597.0000
32.3351	614.0000
32.3556	628.0000
32.3760	589.0000
32.3965	623.0000
32.4170	632.0000
32.4375	611.0000
32.4579	664.0000
32.4784	658.0000
32.4989	652.0000
32.5194	670.0000
32.5398	633.0000
32.5603	682.0000
32.5808	664.0000
32.6013	659.0000
32.6217	631.0000
32.6422	673.0000
32.6627	644.0000
32.6832	648.0000
32.7037	673.0000
32.7241	694.0000
32.7446	691.0000
32.7651	698.0000
32.7856	692.0000
32.8060	693.0000
32.8265	703.0000
32.8470	678.0000
32.8675	666.0000
32.8879	765.0000
32.9084	679.0000
32.9289	728.0000
32.9494	684.0000
32.9698	683.0000
32.9903	733.0000
33.0108	716.0000
33.0313	712.0000
33.0517	722.0000
33.0722	776.0000
33.0927	752.0000
33.1132	742.0000
33.1336	739.0000
33.1541	759.0000
33.1746	765.0000
33.1951	752.0000
33.2155	731.0000
33.2360	741.0000
33.2565	760.0000
33.2770	713.0000
33.2974	755.0000
33.3179	687.0000
33.3384	688.0000
33.3589	711.0000
33.3793	665.0000
33.3998	642.0000
33.4203	684.0000
33.4408	682.0000
33.4612	699.0000
33.4817	675.0000
33.5022	638.0000
33.5227	626.0000
33.5432	684.0000
33.5636	664.0000
33.5841	721.0000
33.6046	655.0000
33.6251	684.0000
33.6455	636.0000
33.6660	658.0000
33.6865	631.0000
33.7070	671.0000
33.7274	617.0000
33.7479	628.0000
33.7684	607.0000
33.7889	674.0000
33.8093	654.0000
33.8298	638.0000
33.8503	621.0000
33.8708	661.0000
33.8912	628.0000
33.9117	646.0000
33.9322	616.0000
33.9527	632.0000
33.9731	649.0000
33.9936	604.0000
34.0141	583.0000
34.0346	646.0000
34.0550	611.0000
34.0755	652.0000
34.0960	585.0000
34.1165	588.0000
34.1369	633.0000
34.1574	592.0000
34.1779	609.0000
34.1984	640.0000
34.2188	647.0000
34.2393	643.0000
34.2598	591.0000
34.2803	621.0000
34.3008	630.0000
34.3212	642.0000
34.3417	658.0000
34.3622	610.0000
34.3827	597.0000
34.4031	638.0000
34.4236	633.0000
34.4441	618.0000
34.4646	613.0000
34.4850	602.0000
34.5055	622.0000
34.5260	684.0000
34.5465	604.0000
34.5669	619.0000
34.5874	628.0000
34.6079	628.0000
34.6284	621.0000
34.6488	636.0000
34.6693	618.0000
34.6898	668.0000
34.7103	627.0000
34.7307	626.0000
34.7512	608.0000
34.7717	613.0000
34.7922	627.0000
34.8126	625.0000
34.8331	598.0000
34.8536	613.0000
34.8741	697.0000
34.8945	683.0000
34.9150	632.0000
34.9355	660.0000
34.9560	672.0000
34.9764	653.0000
34.9969	578.0000
35.0174	663.0000
35.0379	632.0000
35.0583	687.0000
35.0788	662.0000
35.0993	685.0000
35.1198	687.0000
35.1403	673.0000
35.1607	657.0000
35.1812	675.0000
35.2017	642.0000
35.2222	721.0000
35.2426	687.0000
35.2631	710.0000
35.2836	683.0000
35.3041	710.0000
35.3245	695.0000
35.3450	733.0000
35.3655	721.0000
35.3860	660.0000
35.4064	706.0000
35.4269	674.0000
35.4474	729.0000
35.4679	725.0000
35.4883	704.0000
35.5088	754.0000
35.5293	743.0000
35.5498	722.0000
35.5702	757.0000
35.5907	706.0000
35.6112	712.0000
35.6317	759.0000
35.6521	728.0000
35.6726	694.0000
35.6931	721.0000
35.7136	691.0000
35.7340	748.0000
35.7545	667.0000
35.7750	723.0000
35.7955	730.0000
35.8159	679.0000
35.8364	697.0000
35.8569	725.0000
35.8774	685.0000
35.8979	688.0000
35.9183	739.0000
35.9388	670.0000
35.9593	693.0000
35.9798	689.0000
36.0002	718.0000
36.0207	659.0000
36.0412	696.0000
36.0617	764.0000
36.0821	698.0000
36.1026	695.0000
36.1231	699.0000
36.1436	681.0000
36.1640	722.0000
36.1845	713.0000
36.2050	634.0000
36.2255	703.0000
36.2459	716.0000
36.2664	696.0000
36.2869	694.0000
36.3074	745.0000
36.3278	696.0000
36.3483	677.0000
36.3688	725.0000
36.3893	665.0000
36.4097	704.0000
36.4302	668.0000
36.4507	715.0000
36.4712	682.0000
36.4916	716.0000
36.5121	665.0000
36.5326	666.0000
36.5531	737.0000
36.5735	712.0000
36.5940	672.0000
36.6145	681.0000
36.6350	716.0000
36.6555	715.0000
36.6759	719.0000
36.6964	719.0000
36.7169	704.0000
36.7374	741.0000
36.7578	667.0000
36.7783	718.0000
36.7988	774.0000
36.8193	755.0000
36.8397	686.0000
36.8602	764.0000
36.8807	702.0000
36.9012	688.0000
36.9216	750.0000
36.9421	753.0000
36.9626	710.0000
36.9831	722.0000
37.0035	755.0000
37.0240	731.0000
37.0445	764.0000
37.0650	727.0000
37.0854	757.0000
37.1059	806.0000
37.1264	727.0000
37.1469	767.0000
37.1673	778.0000
37.1878	763.0000
37.2083	701.0000
37.2288	774.0000
37.2492	791.0000
37.2697	742.0000
37.2902	734.0000
37.3107	765.0000
37.3311	780.0000
37.3516	785.0000
37.3721	798.0000
37.3926	764.0000
37.4130	763.0000
37.4335	798.0000
37.4540	761.0000
37.4745	791.0000
37.4950	742.0000
37.5154	778.0000
37.5359	799.0000
37.5564	743.0000
37.5769	822.0000
37.5973	832.0000
37.6178	780.0000
37.6383	815.0000
37.6588	773.0000
37.6792	843.0000
37.6997	764.0000
37.7202	815.0000
37.7407	816.0000
37.7611	854.0000
37.7816	851.0000
37.8021	865.0000
37.8226	832.0000
37.8430	805.0000
37.8635	799.0000
37.8840	876.0000
37.9045	869.0000
37.9249	805.0000
37.9454	898.0000
37.9659	840.0000
37.9864	834.0000
38.0068	885.0000
38.0273	882.0000
38.0478	931.0000
38.0683	871.0000
38.0887	878.0000
38.1092	907.0000
38.1297	900.0000
38.1502	929.0000
38.1706	875.0000
38.1911	916.0000
38.2116	945.0000
38.2321	957.0000
38.2526	927.0000
38.2730	985.0000
38.2935	942.0000
38.3140	932.0000
38.3345	927.0000
38.3549	950.0000
38.3754	985.0000
38.3959	1044.0000
38.4164	1019.0000
38.4368	1037.0000
38.4573	1000.0000
38.4778	1009.0000
38.4983	1002.0000
38.5187	1095.0000
38.5392	1050.0000
38.5597	1102.0000
38.5802	1018.0000
38.6006	1117.0000
38.6211	1079.0000
38.6416	1114.0000
38.6621	1102.0000
38.6825	1122.0000
38.7030	1074.0000
38.7235	1111.0000
38.7440	1121.0000
38.7644	1138.0000
38.7849	1197.0000
38.8054	1167.0000
38.8259	1181.0000
38.8463	1192.0000
38.8668	1220.0000
38.8873	1124.0000
38.9078	1209.0000
38.9282	1209.0000
38.9487	1311.0000
38.9692	1288.0000
38.9897	1304.0000
39.0101	1283.0000
39.0306	1236.0000
39.0511	1302.0000
39.0716	1356.0000
39.0921	1324.0000
39.1125	1360.0000
39.1330	1412.0000
39.1535	1392.0000
39.1740	1444.0000
39.1944	1439.0000
39.2149	1488.0000
39.2354	1409.0000
39.2559	1537.0000
39.2763	1574.0000
39.2968	1632.0000
39.3173	1486.0000
39.3378	1572.0000
39.3582	1634.0000
39.3787	1598.0000
39.3992	1637.0000
39.4197	1743.0000
39.4401	1676.0000
39.4606	1830.0000
39.4811	1818.0000
39.5016	1842.0000
39.5220	1822.0000
39.5425	1882.0000
39.5630	1942.0000
39.5835	1871.0000
39.6039	1928.0000
39.6244	2043.0000
39.6449	2018.0000
39.6654	2130.0000
39.6858	2173.0000
39.7063	2219.0000
39.7268	2281.0000
39.7473	2282.0000
39.7677	2313.0000
39.7882	2309.0000
39.8087	2493.0000
39.8292	2540.0000
39.8497	2697.0000
39.8701	2592.0000
39.8906	2679.0000
39.9111	2808.0000
39.9316	2900.0000
39.9520	2897.0000
39.9725	3002.0000
39.9930	3049.0000
40.0135	2983.0000
40.0339	3135.0000
40.0544	3187.0000
40.0749	3077.0000
40.0954	3291.0000
40.1158	3200.0000
40.1363	3176.0000
40.1568	3247.0000
40.1773	3252.0000
40.1977	3324.0000
40.2182	3381.0000
40.2387	3368.0000
40.2592	3312.0000
40.2796	3263.0000
40.3001	3385.0000
40.3206	3297.0000
40.3411	3265.0000
40.3615	3260.0000
40.3820	3177.0000
40.4025	3140.0000
40.4230	3206.0000
40.4434	3186.0000
40.4639	3141.0000
40.4844	3148.0000
40.5049	3024.0000
40.5253	3174.0000
40.5458	3068.0000
40.5663	2914.0000
40.5868	2967.0000
40.6073	2996.0000
40.6277	2943.0000
40.6482	3005.0000
40.6687	2942.0000
40.6892	2883.0000
40.7096	2853.0000
40.7301	2829.0000
40.7506	2865.0000
40.7711	2886.0000
40.7915	2767.0000
40.8120	2710.0000
40.8325	2729.0000
40.8530	2782.0000
40.8734	2593.0000
40.8939	2770.0000
40.9144	2630.0000
40.9349	2610.0000
40.9553	2659.0000
40.9758	2677.0000
40.9963	2623.0000
41.0168	2628.0000
41.0372	2637.0000
41.0577	2731.0000
41.0782	2649.0000
41.0987	2627.0000
41.1191	2704.0000
41.1396	2699.0000
41.1601	2622.0000
41.1806	2729.0000
41.2010	2822.0000
41.2215	2774.0000
41.2420	2780.0000
41.2625	2822.0000
41.2829	2874.0000
41.3034	2879.0000
41.3239	2983.0000
41.3444	3053.0000
41.3648	2982.0000
41.3853	3044.0000
41.4058	2923.0000
41.4263	2929.0000
41.4468	3092.0000
41.4672	2869.0000
41.4877	2859.0000
41.5082	2878.0000
41.5287	2783.0000
41.5491	2680.0000
41.5696	2680.0000
41.5901	2641.0000
41.6106	2492.0000
41.6310	2309.0000
41.6515	2359.0000
41.6720	2259.0000
41.6925	2061.0000
41.7129	1957.0000
41.7334	1909.0000
41.7539	1833.0000
41.7744	1741.0000
41.7948	1634.0000
41.8153	1603.0000
41.8358	1576.0000
41.8563	1483.0000
41.8767	1456.0000
41.8972	1336.0000
41.9177	1326.0000
41.9382	1282.0000
41.9586	1244.0000
41.9791	1212.0000
41.9996	1211.0000
42.0201	1198.0000
42.0405	1138.0000
42.0610	1133.0000
42.0815	1180.0000
42.1020	1062.0000
42.1224	1041.0000
42.1429	1033.0000
42.1634	1009.0000
42.1839	1003.0000
42.2044	974.0000
42.2248	948.0000
42.2453	943.0000
42.2658	878.0000
42.2863	869.0000
42.3067	896.0000
42.3272	935.0000
42.3477	908.0000
42.3682	892.0000
42.3886	860.0000
42.4091	862.0000
42.4296	889.0000
42.4501	900.0000
42.4705	835.0000
42.4910	854.0000
42.5115	832.0000
42.5320	823.0000
42.5524	853.0000
42.5729	788.0000
42.5934	829.0000
42.6139	829.0000
42.6343	765.0000
42.6548	784.0000
42.6753	765.0000
42.6958	776.0000
42.7162	796.0000
42.7367	801.0000
42.7572	761.0000
42.7777	771.0000
42.7981	778.0000
42.8186	794.0000
42.8391	790.0000
42.8596	750.0000
42.8800	812.0000
42.9005	769.0000
42.9210	822.0000
42.9415	780.0000
42.9619	775.0000
42.9824	774.0000
43.0029	812.0000
43.0234	746.0000
43.0439	759.0000
43.0643	748.0000
43.0848	784.0000
43.1053	761.0000
43.1258	754.0000
43.1462	806.0000
43.1667	784.0000
43.1872	787.0000
43.2077	748.0000
43.2281	787.0000
43.2486	716.0000
43.2691	733.0000
43.2896	748.0000
43.3100	697.0000
43.3305	747.0000
43.3510	714.0000
43.3715	790.0000
43.3919	719.0000
43.4124	717.0000
43.4329	734.0000
43.4534	733.0000
43.4738	745.0000
43.4943	769.0000
43.5148	718.0000
43.5353	720.0000
43.5557	713.0000
43.5762	732.0000
43.5967	694.0000
43.6172	692.0000
43.6376	710.0000
43.6581	739.0000
43.6786	731.0000
43.6991	691.0000
43.7195	748.0000
43.7400	729.0000
43.7605	766.0000
43.7810	667.0000
43.8015	740.0000
43.8219	718.0000
43.8424	742.0000
43.8629	713.0000
43.8834	699.0000
43.9038	680.0000
43.9243	683.0000
43.9448	668.0000
43.9653	747.0000
43.9857	725.0000
44.0062	742.0000
44.0267	715.0000
44.0472	778.0000
44.0676	661.0000
44.0881	754.0000
44.1086	715.0000
44.1291	680.0000
44.1495	677.0000
44.1700	656.0000
44.1905	687.0000
44.2110	702.0000
44.2314	677.0000
44.2519	709.0000
44.2724	725.0000
44.2929	700.0000
44.3133	664.0000
44.3338	711.0000
44.3543	687.0000
44.3748	748.0000
44.3952	711.0000
44.4157	722.0000
44.4362	671.0000
44.4567	731.0000
44.4771	723.0000
44.4976	702.0000
44.5181	699.0000
44.5386	711.0000
44.5591	724.0000
44.5795	724.0000
44.6000	708.0000
44.6205	754.0000
44.6410	781.0000
44.6614	741.0000
44.6819	752.0000
44.7024	781.0000
44.7229	772.0000
44.7433	737.0000
44.7638	713.0000
44.7843	728.0000
44.8048	754.0000
44.8252	805.0000
44.8457	702.0000
44.8662	741.0000
44.8867	731.0000
44.9071	720.0000
44.9276	704.0000
44.9481	765.0000
44.9686	726.0000
44.9890	748.0000
45.0095	742.0000
45.0300	760.0000
45.0505	726.0000
45.0709	792.0000
45.0914	802.0000
45.1119	752.0000
45.1324	766.0000
45.1528	753.0000
45.1733	800.0000
45.1938	773.0000
45.2143	797.0000
45.2347	833.0000
45.2552	848.0000
45.2757	822.0000
45.2962	770.0000
45.3166	830.0000
45.3371	844.0000
45.3576	845.0000
45.3781	866.0000
45.3986	823.0000
45.4190	850.0000
45.4395	883.0000
45.4600	848.0000
45.4805	846.0000
45.5009	867.0000
45.5214	907.0000
45.5419	873.0000
45.5624	873.0000
45.5828	890.0000
45.6033	840.0000
45.6238	870.0000
45.6443	937.0000
45.6647	884.0000
45.6852	874.0000
45.7057	898.0000
45.7262	941.0000
45.7466	960.0000
45.7671	988.0000
45.7876	961.0000
45.8081	966.0000
45.8285	940.0000
45.8490	976.0000
45.8695	979.0000
45.8900	981.0000
45.9104	1012.0000
45.9309	1036.0000
45.9514	1061.0000
45.9719	1044.0000
45.9923	1098.0000
46.0128	1059.0000
46.0333	1092.0000
46.0538	1134.0000
46.0742	1125.0000
46.0947	1058.0000
46.1152	1125.0000
46.1357	1147.0000
46.1562	1179.0000
46.1766	1143.0000
46.1971	1159.0000
46.2176	1201.0000
46.2381	1265.0000
46.2585	1251.0000
46.2790	1271.0000
46.2995	1244.0000
46.3200	1346.0000
46.3404	1362.0000
46.3609	1412.0000
46.3814	1333.0000
46.4019	1427.0000
46.4223	1464.0000
46.4428	1498.0000
46.4633	1428.0000
46.4838	1481.0000
46.5042	1528.0000
46.5247	1481.0000
46.5452	1593.0000
46.5657	1576.0000
46.5861	1580.0000
46.6066	1636.0000
46.6271	1588.0000
46.6476	1561.0000
46.6680	1583.0000
46.6885	1603.0000
46.7090	1650.0000
46.7295	1687.0000
46.7499	1688.0000
46.7704	1711.0000
46.7909	1711.0000
46.8114	1663.0000
46.8318	1644.0000
46.8523	1635.0000
46.8728	1615.0000
46.8933	1582.0000
46.9137	1570.0000
46.9342	1570.0000
46.9547	1698.0000
46.9752	1578.0000
46.9957	1704.0000
47.0161	1614.0000
47.0366	1547.0000
47.0571	1646.0000
47.0776	1621.0000
47.0980	1584.0000
47.1185	1624.0000
47.1390	1640.0000
47.1595	1597.0000
47.1799	1538.0000
47.2004	1565.0000
47.2209	1581.0000
47.2414	1539.0000
47.2618	1521.0000
47.2823	1545.0000
47.3028	1528.0000
47.3233	1544.0000
47.3437	1587.0000
47.3642	1592.0000
47.3847	1577.0000
47.4052	1530.0000
47.4256	1595.0000
47.4461	1455.0000
47.4666	1446.0000
47.4871	1457.0000
47.5075	1445.0000
47.5280	1455.0000
47.5485	1430.0000
47.5690	1456.0000
47.5894	1498.0000
47.6099	1475.0000
47.6304	1473.0000
47.6509	1404.0000
47.6713	1394.0000
47.6918	1301.0000
47.7123	1333.0000
47.7328	1303.0000
47.7533	1228.0000
47.7737	1272.0000
47.7942	1270.0000
47.8147	1213.0000
47.8352	1176.0000
47.8556	1235.0000
47.8761	1141.0000
47.8966	1237.0000
47.9171	1151.0000
47.9375	1112.0000
47.9580	1134.0000
47.9785	1159.0000
47.9990	1147.0000
48.0194	1141.0000
48.0399	1102.0000
48.0604	1087.0000
48.0809	1128.0000
48.1013	1047.0000
48.1218	1060.0000
48.1423	1062.0000
48.1628	1039.0000
48.1832	1063.0000
48.2037	1021.0000
48.2242	963.0000
48.2447	915.0000
48.2651	930.0000
48.2856	918.0000
48.3061	916.0000
48.3266	872.0000
48.3470	901.0000
48.3675	966.0000
48.3880	862.0000
48.4085	839.0000
48.4289	862.0000
48.4494	865.0000
48.4699	848.0000
48.4904	848.0000
48.5109	811.0000
48.5313	834.0000
48.5518	851.0000
48.5723	808.0000
48.5928	874.0000
48.6132	832.0000
48.6337	833.0000
48.6542	807.0000
48.6747	816.0000
48.6951	784.0000
48.7156	767.0000
48.7361	730.0000
48.7566	800.0000
48.7770	784.0000
48.7975	798.0000
48.8180	710.0000
48.8385	733.0000
48.8589	767.0000
48.8794	726.0000
48.8999	717.0000
48.9204	711.0000
48.9408	729.0000
48.9613	690.0000
48.9818	768.0000
49.0023	714.0000
49.0227	708.0000
49.0432	707.0000
49.0637	704.0000
49.0842	669.0000
49.1046	679.0000
49.1251	696.0000
49.1456	677.0000
49.1661	698.0000
49.1865	686.0000
49.2070	715.0000
49.2275	642.0000
49.2480	688.0000
49.2684	692.0000
49.2889	636.0000
49.3094	662.0000
49.3299	653.0000
49.3504	655.0000
49.3708	684.0000
49.3913	607.0000
49.4118	700.0000
49.4323	631.0000
49.4527	644.0000
49.4732	632.0000
49.4937	672.0000
49.5142	641.0000
49.5346	686.0000
49.5551	639.0000
49.5756	668.0000
49.5961	643.0000
49.6165	648.0000
49.6370	646.0000
49.6575	661.0000
49.6780	643.0000
49.6984	655.0000
49.7189	653.0000
49.7394	630.0000
49.7599	626.0000
49.7803	666.0000
49.8008	578.0000
49.8213	589.0000
49.8418	582.0000
49.8622	574.0000
49.8827	635.0000
49.9032	585.0000
49.9237	606.0000
49.9441	588.0000
49.9646	626.0000
49.9851	623.0000
50.0056	570.0000
50.0260	556.0000
50.0465	568.0000
50.0670	608.0000
50.0875	571.0000
50.1080	566.0000
50.1284	541.0000
50.1489	578.0000
50.1694	570.0000
50.1899	588.0000
50.2103	544.0000
50.2308	568.0000
50.2513	570.0000
50.2718	539.0000
50.2922	542.0000
50.3127	577.0000
50.3332	541.0000
50.3537	547.0000
50.3741	539.0000
50.3946	516.0000
50.4151	533.0000
50.4356	532.0000
50.4560	512.0000
50.4765	510.0000
50.4970	552.0000
50.5175	540.0000
50.5379	569.0000
50.5584	528.0000
50.5789	519.0000
50.5994	552.0000
50.6198	538.0000
50.6403	533.0000
50.6608	513.0000
50.6813	545.0000
50.7017	527.0000
50.7222	507.0000
50.7427	524.0000
50.7632	531.0000
50.7836	573.0000
50.8041	520.0000
50.8246	527.0000
50.8451	506.0000
50.8655	528.0000
50.8860	518.0000
50.9065	530.0000
50.9270	508.0000
50.9475	528.0000
50.9679	523.0000
50.9884	523.0000
51.0089	560.0000
51.0294	532.0000
51.0498	519.0000
51.0703	544.0000
51.0908	527.0000
51.1113	543.0000
51.1317	543.0000
51.1522	480.0000
51.1727	501.0000
51.1932	541.0000
51.2136	502.0000
51.2341	491.0000
51.2546	484.0000
51.2751	521.0000
51.2955	477.0000
51.3160	484.0000
51.3365	488.0000
51.3570	498.0000
51.3774	533.0000
51.3979	523.0000
51.4184	524.0000
51.4389	511.0000
51.4593	518.0000
51.4798	480.0000
51.5003	522.0000
51.5208	506.0000
51.5412	475.0000
51.5617	477.0000
51.5822	500.0000
51.6027	517.0000
51.6231	519.0000
51.6436	500.0000
51.6641	523.0000
51.6846	484.0000
51.7051	540.0000
51.7255	502.0000
51.7460	494.0000
51.7665	476.0000
51.7870	520.0000
51.8074	524.0000
51.8279	536.0000
51.8484	524.0000
51.8689	523.0000
51.8893	491.0000
51.9098	510.0000
51.9303	511.0000
51.9508	516.0000
51.9712	517.0000
51.9917	474.0000
52.0122	497.0000
52.0327	507.0000
52.0531	560.0000
52.0736	531.0000
52.0941	479.0000
52.1146	502.0000
52.1350	528.0000
52.1555	478.0000
52.1760	522.0000
52.1965	469.0000
52.2169	522.0000
52.2374	443.0000
52.2579	513.0000
52.2784	481.0000
52.2988	505.0000
52.3193	503.0000
52.3398	472.0000
52.3603	490.0000
52.3807	515.0000
52.4012	472.0000
52.4217	512.0000
52.4422	476.0000
52.4626	501.0000
52.4831	493.0000
52.5036	469.0000
52.5241	466.0000
52.5446	496.0000
52.5650	470.0000
52.5855	547.0000
52.6060	467.0000
52.6265	476.0000
52.6469	479.0000
52.6674	508.0000
52.6879	514.0000
52.7084	534.0000
52.7288	510.0000
52.7493	510.0000
52.7698	506.0000
52.7903	511.0000
52.8107	505.0000
52.8312	503.0000
52.8517	506.0000
52.8722	474.0000
52.8926	507.0000
52.9131	532.0000
52.9336	462.0000
52.9541	482.0000
52.9745	519.0000
52.9950	524.0000
53.0155	479.0000
53.0360	516.0000
53.0564	517.0000
53.0769	497.0000
53.0974	460.0000
53.1179	521.0000
53.1383	496.0000
53.1588	507.0000
53.1793	525.0000
53.1998	483.0000
53.2202	480.0000
53.2407	498.0000
53.2612	520.0000
53.2817	556.0000
53.3022	500.0000
53.3226	532.0000
53.3431	563.0000
53.3636	510.0000
53.3841	496.0000
53.4045	516.0000
53.4250	549.0000
53.4455	501.0000
53.4660	522.0000
53.4864	518.0000
53.5069	521.0000
53.5274	506.0000
53.5479	544.0000
53.5683	522.0000
53.5888	520.0000
53.6093	512.0000
53.6298	529.0000
53.6502	533.0000
53.6707	568.0000
53.6912	569.0000
53.7117	562.0000
53.7321	555.0000
53.7526	554.0000
53.7731	538.0000
53.7936	528.0000
53.8140	563.0000
53.8345	526.0000
53.8550	565.0000
53.8755	539.0000
53.8959	540.0000
53.9164	527.0000
53.9369	597.0000
53.9574	554.0000
53.9778	551.0000
53.9983	558.0000
54.0188	525.0000
54.0393	573.0000
54.0598	548.0000
54.0802	535.0000
54.1007	532.0000
54.1212	514.0000
54.1417	546.0000
54.1621	576.0000
54.1826	522.0000
54.2031	591.0000
54.2236	567.0000
54.2440	545.0000
54.2645	501.0000
54.2850	513.0000
54.3055	547.0000
54.3259	532.0000
54.3464	561.0000
54.3669	541.0000
54.3874	531.0000
54.4078	517.0000
54.4283	512.0000
54.4488	520.0000
54.4693	513.0000
54.4897	559.0000
54.5102	503.0000
54.5307	549.0000
54.5512	506.0000
54.5716	511.0000
54.5921	499.0000
54.6126	526.0000
54.6331	471.0000
54.6535	510.0000
54.6740	503.0000
54.6945	526.0000
54.7150	455.0000
54.7354	504.0000
54.7559	504.0000
54.7764	477.0000
54.7969	484.0000
54.8173	523.0000
54.8378	472.0000
54.8583	503.0000
54.8788	482.0000
54.8993	513.0000
54.9197	517.0000
54.9402	480.0000
54.9607	515.0000
54.9812	491.0000
55.0016	483.0000
55.0221	516.0000
55.0426	463.0000
55.0631	516.0000
55.0835	480.0000
55.1040	490.0000
55.1245	507.0000
55.1450	504.0000
55.1654	471.0000
55.1859	507.0000
55.2064	490.0000
55.2269	485.0000
55.2473	530.0000
55.2678	496.0000
55.2883	458.0000
55.3088	477.0000
55.3292	445.0000
55.3497	493.0000
55.3702	483.0000
55.3907	475.0000
55.4111	475.0000
55.4316	433.0000
55.4521	489.0000
55.4726	441.0000
55.4930	494.0000
55.5135	470.0000
55.5340	492.0000
55.5545	494.0000
55.5749	465.0000
55.5954	460.0000
55.6159	485.0000
55.6364	462.0000
55.6569	472.0000
55.6773	465.0000
55.6978	491.0000
55.7183	497.0000
55.7388	485.0000
55.7592	512.0000
55.7797	464.0000
55.8002	473.0000
55.8207	481.0000
55.8411	408.0000
55.8616	462.0000
55.8821	458.0000
55.9026	473.0000
55.9230	445.0000
55.9435	502.0000
55.9640	477.0000
55.9845	517.0000
56.0049	476.0000
56.0254	442.0000
56.0459	441.0000
56.0664	467.0000
56.0868	487.0000
56.1073	469.0000
56.1278	472.0000
56.1483	481.0000
56.1687	514.0000
56.1892	476.0000
56.2097	463.0000
56.2302	491.0000
56.2506	456.0000
56.2711	488.0000
56.2916	473.0000
56.3121	467.0000
56.3325	508.0000
56.3530	461.0000
56.3735	467.0000
56.3940	523.0000
56.4144	458.0000
56.4349	468.0000
56.4554	458.0000
56.4759	494.0000
56.4964	474.0000
56.5168	503.0000
56.5373	484.0000
56.5578	472.0000
56.5783	476.0000
56.5987	487.0000
56.6192	492.0000
56.6397	493.0000
56.6602	477.0000
56.6806	482.0000
56.7011	510.0000
56.7216	476.0000
56.7421	481.0000
56.7625	489.0000
56.7830	477.0000
56.8035	498.0000
56.8240	472.0000
56.8444	485.0000
56.8649	456.0000
56.8854	473.0000
56.9059	458.0000
56.9263	449.0000
56.9468	466.0000
56.9673	466.0000
56.9878	482.0000
57.0082	480.0000
57.0287	461.0000
57.0492	491.0000
57.0697	486.0000
57.0901	430.0000
57.1106	523.0000
57.1311	479.0000
57.1516	512.0000
57.1720	473.0000
57.1925	431.0000
57.2130	455.0000
57.2335	473.0000
57.2540	510.0000
57.2744	451.0000
57.2949	474.0000
57.3154	462.0000
57.3359	446.0000
57.3563	455.0000
57.3768	482.0000
57.3973	464.0000
57.4178	446.0000
57.4382	449.0000
57.4587	480.0000
57.4792	506.0000
57.4997	495.0000
57.5201	487.0000
57.5406	444.0000
57.5611	456.0000
57.5816	505.0000
57.6020	448.0000
57.6225	466.0000
57.6430	490.0000
57.6635	470.0000
57.6839	425.0000
57.7044	433.0000
57.7249	454.0000
57.7454	453.0000
57.7658	454.0000
57.7863	460.0000
57.8068	471.0000
57.8273	465.0000
57.8477	447.0000
57.8682	455.0000
57.8887	440.0000
57.9092	476.0000
57.9296	506.0000
57.9501	454.0000
57.9706	459.0000
57.9911	464.0000
58.0116	502.0000
58.0320	464.0000
58.0525	507.0000
58.0730	451.0000
58.0935	423.0000
58.1139	452.0000
58.1344	483.0000
58.1549	435.0000
58.1754	435.0000
58.1958	461.0000
58.2163	479.0000
58.2368	436.0000
58.2573	445.0000
58.2777	434.0000
58.2982	462.0000
58.3187	447.0000
58.3392	476.0000
58.3596	445.0000
58.3801	480.0000
58.4006	458.0000
58.4211	470.0000
58.4415	457.0000
58.4620	459.0000
58.4825	467.0000
58.5030	453.0000
58.5234	470.0000
58.5439	479.0000
58.5644	457.0000
58.5849	454.0000
58.6053	489.0000
58.6258	466.0000
58.6463	418.0000
58.6668	450.0000
58.6872	436.0000
58.7077	453.0000
58.7282	508.0000
58.7487	463.0000
58.7691	471.0000
58.7896	469.0000
58.8101	442.0000
58.8306	459.0000
58.8511	497.0000
58.8715	491.0000
58.8920	464.0000
58.9125	425.0000
58.9330	434.0000
58.9534	436.0000
58.9739	439.0000
58.9944	466.0000
59.0149	449.0000
59.0353	442.0000
59.0558	427.0000
59.0763	458.0000
59.0968	457.0000
59.1172	447.0000
59.1377	442.0000
59.1582	458.0000
59.1787	486.0000
59.1991	429.0000
59.2196	477.0000
59.2401	477.0000
59.2606	420.0000
59.2810	432.0000
59.3015	484.0000
59.3220	451.0000
59.3425	479.0000
59.3629	475.0000
59.3834	456.0000
59.4039	481.0000
59.4244	462.0000
59.4448	476.0000
59.4653	499.0000
59.4858	424.0000
59.5063	448.0000
59.5267	428.0000
59.5472	463.0000
59.5677	439.0000
59.5882	486.0000
59.6087	453.0000
59.6291	427.0000
59.6496	441.0000
59.6701	438.0000
59.6906	449.0000
59.7110	454.0000
59.7315	458.0000
59.7520	471.0000
59.7725	424.0000
59.7929	450.0000
59.8134	453.0000
59.8339	453.0000
59.8544	445.0000
59.8748	454.0000
59.8953	458.0000
59.9158	454.0000
59.9363	454.0000
59.9567	500.0000
59.9772	483.0000
59.9977	457.0000
60.0182	461.0000
60.0386	479.0000
60.0591	476.0000
60.0796	444.0000
60.1001	487.0000
60.1205	526.0000
60.1410	465.0000
60.1615	458.0000
60.1820	483.0000
60.2024	458.0000
60.2229	458.0000
60.2434	460.0000
60.2639	469.0000
60.2843	443.0000
60.3048	456.0000
60.3253	530.0000
60.3458	506.0000
60.3662	442.0000
60.3867	472.0000
60.4072	454.0000
60.4277	466.0000
60.4482	516.0000
60.4686	474.0000
60.4891	497.0000
60.5096	451.0000
60.5301	481.0000
60.5505	493.0000
60.5710	504.0000
60.5915	495.0000
60.6120	473.0000
60.6324	495.0000
60.6529	488.0000
60.6734	473.0000
60.6939	444.0000
60.7143	480.0000
60.7348	477.0000
60.7553	485.0000
60.7758	473.0000
60.7962	489.0000
60.8167	496.0000
60.8372	486.0000
60.8577	496.0000
60.8781	501.0000
60.8986	452.0000
60.9191	533.0000
60.9396	477.0000
60.9600	495.0000
60.9805	487.0000
61.0010	515.0000
61.0215	520.0000
61.0419	503.0000
61.0624	509.0000
61.0829	516.0000
61.1034	501.0000
61.1238	506.0000
61.1443	497.0000
61.1648	496.0000
61.1853	486.0000
61.2058	470.0000
61.2262	475.0000
61.2467	501.0000
61.2672	495.0000
61.2877	489.0000
61.3081	488.0000
61.3286	496.0000
61.3491	479.0000
61.3696	486.0000
61.3900	501.0000
61.4105	490.0000
61.4310	447.0000
61.4515	428.0000
61.4719	512.0000
61.4924	470.0000
61.5129	496.0000
61.5334	499.0000
61.5538	496.0000
61.5743	485.0000
61.5948	503.0000
61.6153	508.0000
61.6357	465.0000
61.6562	535.0000
61.6767	465.0000
61.6972	481.0000
61.7176	475.0000
61.7381	483.0000
61.7586	449.0000
61.7791	469.0000
61.7995	473.0000
61.8200	480.0000
61.8405	476.0000
61.8610	483.0000
61.8814	483.0000
61.9019	476.0000
61.9224	478.0000
61.9429	444.0000
61.9634	514.0000
61.9838	469.0000
62.0043	429.0000
62.0248	470.0000
62.0453	457.0000
62.0657	463.0000
62.0862	508.0000
62.1067	458.0000
62.1272	488.0000
62.1476	491.0000
62.1681	472.0000
62.1886	479.0000
62.2091	440.0000
62.2295	478.0000
62.2500	478.0000
62.2705	453.0000
62.2910	477.0000
62.3114	499.0000
62.3319	484.0000
62.3524	454.0000
62.3729	481.0000
62.3933	509.0000
62.4138	453.0000
62.4343	458.0000
62.4548	496.0000
62.4752	474.0000
62.4957	486.0000
62.5162	477.0000
62.5367	464.0000
62.5571	488.0000
62.5776	489.0000
62.5981	494.0000
62.6186	523.0000
62.6390	490.0000
62.6595	486.0000
62.6800	491.0000
62.7005	530.0000
62.7209	520.0000
62.7414	474.0000
62.7619	531.0000
62.7824	505.0000
62.8029	486.0000
62.8233	470.0000
62.8438	499.0000
62.8643	493.0000
62.8848	473.0000
62.9052	505.0000
62.9257	484.0000
62.9462	469.0000
62.9667	486.0000
62.9871	517.0000
63.0076	498.0000
63.0281	499.0000
63.0486	540.0000
63.0690	501.0000
63.0895	440.0000
63.1100	499.0000
63.1305	474.0000
63.1509	511.0000
63.1714	474.0000
63.1919	458.0000
63.2124	501.0000
63.2328	509.0000
63.2533	497.0000
63.2738	491.0000
63.2943	463.0000
63.3147	439.0000
63.3352	458.0000
63.3557	485.0000
63.3762	468.0000
63.3966	483.0000
63.4171	471.0000
63.4376	466.0000
63.4581	464.0000
63.4785	490.0000
63.4990	464.0000
63.5195	473.0000
63.5400	506.0000
63.5605	499.0000
63.5809	448.0000
63.6014	486.0000
63.6219	483.0000
63.6424	483.0000
63.6628	473.0000
63.6833	495.0000
63.7038	469.0000
63.7243	436.0000
63.7447	472.0000
63.7652	442.0000
63.7857	483.0000
63.8062	534.0000
63.8266	463.0000
63.8471	502.0000
63.8676	480.0000
63.8881	454.0000
63.9085	470.0000
63.9290	452.0000
63.9495	480.0000
63.9700	484.0000
63.9904	471.0000
64.0109	463.0000
64.0314	479.0000
64.0519	452.0000
64.0723	466.0000
64.0928	487.0000
64.1133	490.0000
64.1338	482.0000
64.1542	481.0000
64.1747	469.0000
64.1952	428.0000
64.2157	462.0000
64.2361	470.0000
64.2566	476.0000
64.2771	475.0000
64.2976	439.0000
64.3180	450.0000
64.3385	463.0000
64.3590	509.0000
64.3795	463.0000
64.4000	482.0000
64.4204	477.0000
64.4409	472.0000
64.4614	463.0000
64.4819	462.0000
64.5023	463.0000
64.5228	484.0000
64.5433	441.0000
64.5638	449.0000
64.5842	441.0000
64.6047	487.0000
64.6252	492.0000
64.6457	510.0000
64.6661	480.0000
64.6866	424.0000
64.7071	432.0000
64.7276	449.0000
64.7480	416.0000
64.7685	461.0000
64.7890	446.0000
64.8095	444.0000
64.8299	484.0000
64.8504	473.0000
64.8709	464.0000
64.8914	451.0000
64.9118	464.0000
64.9323	463.0000
64.9528	462.0000
64.9733	472.0000
64.9937	474.0000
65.0142	480.0000
65.0347	462.0000
65.0552	451.0000
65.0756	472.0000
65.0961	457.0000
65.1166	481.0000
65.1371	445.0000
65.1576	464.0000
65.1780	449.0000
65.1985	496.0000
65.2190	505.0000
65.2395	463.0000
65.2599	501.0000
65.2804	447.0000
65.3009	468.0000
65.3214	514.0000
65.3418	513.0000
65.3623	485.0000
65.3828	469.0000
65.4033	446.0000
65.4237	507.0000
65.4442	453.0000
65.4647	466.0000
65.4852	493.0000
65.5056	466.0000
65.5261	502.0000
65.5466	510.0000
65.5671	542.0000
65.5875	510.0000
65.6080	470.0000
65.6285	467.0000
65.6490	491.0000
65.6694	536.0000
65.6899	477.0000
65.7104	558.0000
65.7309	465.0000
65.7513	511.0000
65.7718	485.0000
65.7923	495.0000
65.8128	488.0000
65.8332	498.0000
65.8537	492.0000
65.8742	472.0000
65.8947	506.0000
65.9152	502.0000
65.9356	520.0000
65.9561	509.0000
65.9766	495.0000
65.9971	502.0000
66.0175	552.0000
66.0380	491.0000
66.0585	520.0000
66.0790	552.0000
66.0994	555.0000
66.1199	521.0000
66.1404	533.0000
66.1609	521.0000
66.1813	537.0000
66.2018	500.0000
66.2223	538.0000
66.2428	580.0000
66.2632	546.0000
66.2837	472.0000
66.3042	507.0000
66.3247	590.0000
66.3451	502.0000
66.3656	493.0000
66.3861	557.0000
66.4066	568.0000
66.4270	570.0000
66.4475	550.0000
66.4680	556.0000
66.4885	531.0000
66.5089	564.0000
66.5294	571.0000
66.5499	552.0000
66.5704	519.0000
66.5908	564.0000
66.6113	550.0000
66.6318	602.0000
66.6523	590.0000
66.6727	573.0000
66.6932	587.0000
66.7137	542.0000
66.7342	570.0000
66.7547	593.0000
66.7751	601.0000
66.7956	616.0000
66.8161	603.0000
66.8366	551.0000
66.8570	612.0000
66.8775	587.0000
66.8980	595.0000
66.9185	628.0000
66.9389	594.0000
66.9594	607.0000
66.9799	606.0000
67.0004	581.0000
67.0208	628.0000
67.0413	619.0000
67.0618	650.0000
67.0823	644.0000
67.1027	592.0000
67.1232	621.0000
67.1437	630.0000
67.1642	625.0000
67.1846	706.0000
67.2051	637.0000
67.2256	670.0000
67.2461	656.0000
67.2665	652.0000
67.2870	685.0000
67.3075	672.0000
67.3280	676.0000
67.3484	663.0000
67.3689	714.0000
67.3894	684.0000
67.4099	712.0000
67.4303	684.0000
67.4508	673.0000
67.4713	693.0000
67.4918	697.0000
67.5123	731.0000
67.5327	730.0000
67.5532	716.0000
67.5737	706.0000
67.5942	796.0000
67.6146	750.0000
67.6351	775.0000
67.6556	745.0000
67.6761	796.0000
67.6965	812.0000
67.7170	848.0000
67.7375	794.0000
67.7580	834.0000
67.7784	804.0000
67.7989	823.0000
67.8194	879.0000
67.8399	860.0000
67.8603	846.0000
67.8808	905.0000
67.9013	867.0000
67.9218	795.0000
67.9422	908.0000
67.9627	893.0000
67.9832	916.0000
68.0037	881.0000
68.0241	861.0000
68.0446	878.0000
68.0651	911.0000
68.0856	876.0000
68.1060	903.0000
68.1265	991.0000
68.1470	906.0000
68.1675	879.0000
68.1879	925.0000
68.2084	884.0000
68.2289	867.0000
68.2494	847.0000
68.2698	885.0000
68.2903	854.0000
68.3108	873.0000
68.3313	888.0000
68.3518	877.0000
68.3722	922.0000
68.3927	898.0000
68.4132	966.0000
68.4337	898.0000
68.4541	888.0000
68.4746	833.0000
68.4951	819.0000
68.5156	885.0000
68.5360	867.0000
68.5565	882.0000
68.5770	894.0000
68.5975	879.0000
68.6179	870.0000
68.6384	850.0000
68.6589	893.0000
68.6794	910.0000
68.6998	835.0000
68.7203	855.0000
68.7408	813.0000
68.7613	768.0000
68.7817	867.0000
68.8022	833.0000
68.8227	828.0000
68.8432	814.0000
68.8636	816.0000
68.8841	800.0000
68.9046	836.0000
68.9251	820.0000
68.9455	817.0000
68.9660	803.0000
68.9865	804.0000
69.0070	756.0000
69.0274	795.0000
69.0479	772.0000
69.0684	764.0000
69.0889	846.0000
69.1094	810.0000
69.1298	790.0000
69.1503	777.0000
69.1708	755.0000
69.1913	753.0000
69.2117	745.0000
69.2322	743.0000
69.2527	775.0000
69.2732	772.0000
69.2936	772.0000
69.3141	783.0000
69.3346	765.0000
69.3551	757.0000
69.3755	747.0000
69.3960	739.0000
69.4165	742.0000
69.4370	737.0000
69.4574	744.0000
69.4779	742.0000
69.4984	772.0000
69.5189	718.0000
69.5393	748.0000
69.5598	739.0000
69.5803	769.0000
69.6008	752.0000
69.6212	755.0000
69.6417	774.0000
69.6622	674.0000
69.6827	735.0000
69.7031	734.0000
69.7236	688.0000
69.7441	714.0000
69.7646	684.0000
69.7850	699.0000
69.8055	685.0000
69.8260	685.0000
69.8465	681.0000
69.8670	700.0000
69.8874	697.0000
69.9079	738.0000
69.9284	693.0000
69.9489	676.0000
69.9693	685.0000
69.9898	686.0000
70.0103	619.0000
70.0308	657.0000
70.0512	616.0000
70.0717	660.0000
70.0922	636.0000
70.1127	654.0000
70.1331	684.0000
70.1536	622.0000
70.1741	715.0000
70.1946	691.0000
70.2150	637.0000
70.2355	634.0000
70.2560	625.0000
70.2765	664.0000
70.2969	645.0000
70.3174	658.0000
70.3379	687.0000
70.3584	652.0000
70.3788	639.0000
70.3993	645.0000
70.4198	641.0000
70.4403	600.0000
70.4607	627.0000
70.4812	620.0000
70.5017	641.0000
70.5222	625.0000
70.5426	585.0000
70.5631	602.0000
70.5836	619.0000
70.6041	652.0000
70.6245	566.0000
70.6450	614.0000
70.6655	645.0000
70.6860	624.0000
70.7065	607.0000
70.7269	628.0000
70.7474	640.0000
70.7679	588.0000
70.7884	602.0000
70.8088	597.0000
70.8293	595.0000
70.8498	567.0000
70.8703	588.0000
70.8907	598.0000
70.9112	622.0000
70.9317	616.0000
70.9522	627.0000
70.9726	608.0000
70.9931	606.0000
71.0136	664.0000
71.0341	563.0000
71.0545	596.0000
71.0750	625.0000
71.0955	603.0000
71.1160	598.0000
71.1364	596.0000
71.1569	577.0000
71.1774	578.0000
71.1979	598.0000
71.2183	609.0000
71.2388	547.0000
71.2593	606.0000
71.2798	553.0000
71.3002	616.0000
71.3207	590.0000
71.3412	574.0000
71.3617	568.0000
71.3821	571.0000
71.4026	549.0000
71.4231	530.0000
71.4436	535.0000
71.4641	551.0000
71.4845	526.0000
71.5050	568.0000
71.5255	504.0000
71.5460	556.0000
71.5664	501.0000
71.5869	489.0000
71.6074	488.0000
71.6279	485.0000
71.6483	517.0000
71.6688	499.0000
71.6893	543.0000
71.7098	484.0000
71.7302	471.0000
71.7507	491.0000
71.7712	508.0000
71.7917	446.0000
71.8121	497.0000
71.8326	472.0000
71.8531	462.0000
71.8736	459.0000
71.8940	469.0000
71.9145	443.0000
71.9350	466.0000
71.9555	438.0000
71.9759	413.0000
71.9964	438.0000
72.0169	449.0000
72.0374	432.0000
72.0578	440.0000
72.0783	453.0000
72.0988	464.0000
72.1193	448.0000
72.1397	464.0000
72.1602	440.0000
72.1807	490.0000
72.2012	406.0000
72.2216	430.0000
72.2421	469.0000
72.2626	400.0000
72.2831	439.0000
72.3036	423.0000
72.3240	413.0000
72.3445	421.0000
72.3650	439.0000
72.3855	431.0000
72.4059	445.0000
72.4264	450.0000
72.4469	369.0000
72.4674	399.0000
72.4878	386.0000
72.5083	433.0000
72.5288	429.0000
72.5493	421.0000
72.5697	408.0000
72.5902	431.0000
72.6107	408.0000
72.6312	418.0000
72.6516	409.0000
72.6721	399.0000
72.6926	466.0000
72.7131	417.0000
72.7335	391.0000
72.7540	405.0000
72.7745	410.0000
72.7950	440.0000
72.8154	454.0000
72.8359	444.0000
72.8564	434.0000
72.8769	429.0000
72.8973	388.0000
72.9178	439.0000
72.9383	413.0000
72.9588	406.0000
72.9792	433.0000
72.9997	417.0000
73.0202	462.0000
73.0407	373.0000
73.0612	426.0000
73.0816	416.0000
73.1021	400.0000
73.1226	394.0000
73.1431	418.0000
73.1635	423.0000
73.1840	416.0000
73.2045	437.0000
73.2250	393.0000
73.2454	406.0000
73.2659	418.0000
73.2864	400.0000
73.3069	385.0000
73.3273	401.0000
73.3478	429.0000
73.3683	400.0000
73.3888	434.0000
73.4092	408.0000
73.4297	418.0000
73.4502	446.0000
73.4707	413.0000
73.4911	410.0000
73.5116	407.0000
73.5321	401.0000
73.5526	455.0000
73.5730	440.0000
73.5935	438.0000
73.6140	386.0000
73.6345	403.0000
73.6549	398.0000
73.6754	409.0000
73.6959	394.0000
73.7164	444.0000
73.7368	398.0000
73.7573	459.0000
73.7778	384.0000
73.7983	388.0000
73.8187	381.0000
73.8392	430.0000
73.8597	478.0000
73.8802	405.0000
73.9007	386.0000
73.9211	388.0000
73.9416	422.0000
73.9621	438.0000
73.9826	424.0000
74.0030	399.0000
74.0235	399.0000
74.0440	419.0000
74.0645	399.0000
74.0849	433.0000
74.1054	410.0000
74.1259	429.0000
74.1464	430.0000
74.1668	423.0000
74.1873	422.0000
74.2078	418.0000
74.2283	396.0000
74.2487	397.0000
74.2692	398.0000
74.2897	395.0000
74.3102	410.0000
74.3306	461.0000
74.3511	416.0000
74.3716	416.0000
74.3921	389.0000
74.4125	409.0000
74.4330	422.0000
74.4535	395.0000
74.4740	425.0000
74.4944	406.0000
74.5149	462.0000
74.5354	376.0000
74.5559	437.0000
74.5763	449.0000
74.5968	448.0000
74.6173	438.0000
74.6378	405.0000
74.6583	432.0000
74.6787	403.0000
74.6992	395.0000
74.7197	421.0000
74.7402	418.0000
74.7606	457.0000
74.7811	414.0000
74.8016	465.0000
74.8221	433.0000
74.8425	409.0000
74.8630	419.0000
74.8835	433.0000
74.9040	414.0000
74.9244	434.0000
74.9449	391.0000
74.9654	416.0000
74.9859	430.0000
75.0063	411.0000
75.0268	423.0000
75.0473	452.0000
75.0678	425.0000
75.0882	431.0000
75.1087	422.0000
75.1292	418.0000
75.1497	437.0000
75.1701	439.0000
75.1906	403.0000
75.2111	420.0000
75.2316	395.0000
75.2520	424.0000
75.2725	398.0000
75.2930	438.0000
75.3135	432.0000
75.3339	434.0000
75.3544	371.0000
75.3749	419.0000
75.3954	426.0000
75.4159	410.0000
75.4363	444.0000
75.4568	423.0000
75.4773	387.0000
75.4978	414.0000
75.5182	427.0000
75.5387	467.0000
75.5592	416.0000
75.5797	425.0000
75.6001	394.0000
75.6206	427.0000
75.6411	450.0000
75.6616	457.0000
75.6820	464.0000
75.7025	403.0000
75.7230	409.0000
75.7435	385.0000
75.7639	399.0000
75.7844	409.0000
75.8049	418.0000
75.8254	416.0000
75.8458	409.0000
75.8663	390.0000
75.8868	377.0000
75.9073	361.0000
75.9277	413.0000
75.9482	375.0000
75.9687	416.0000
75.9892	426.0000
76.0096	380.0000
76.0301	385.0000
76.0506	407.0000
76.0711	363.0000
76.0915	396.0000
76.1120	415.0000
76.1325	422.0000
76.1530	378.0000
76.1734	401.0000
76.1939	423.0000
76.2144	394.0000
76.2349	408.0000
76.2554	401.0000
76.2758	437.0000
76.2963	402.0000
76.3168	374.0000
76.3373	416.0000
76.3577	397.0000
76.3782	387.0000
76.3987	408.0000
76.4192	449.0000
76.4396	414.0000
76.4601	402.0000
76.4806	410.0000
76.5011	400.0000
76.5215	434.0000
76.5420	421.0000
76.5625	401.0000
76.5830	421.0000
76.6034	412.0000
76.6239	370.0000
76.6444	380.0000
76.6649	409.0000
76.6853	419.0000
76.7058	421.0000
76.7263	427.0000
76.7468	401.0000
76.7672	373.0000
76.7877	400.0000
76.8082	395.0000
76.8287	393.0000
76.8491	408.0000
76.8696	408.0000
76.8901	411.0000
76.9106	388.0000
76.9310	416.0000
76.9515	411.0000
76.9720	390.0000
76.9925	380.0000
77.0130	439.0000
77.0334	413.0000
77.0539	411.0000
77.0744	375.0000
77.0949	424.0000
77.1153	386.0000
77.1358	421.0000
77.1563	402.0000
77.1768	422.0000
77.1972	435.0000
77.2177	395.0000
77.2382	421.0000
77.2587	383.0000
77.2791	374.0000
77.2996	404.0000
77.3201	412.0000
77.3406	428.0000
77.3610	394.0000
77.3815	434.0000
77.4020	388.0000
77.4225	390.0000
77.4429	463.0000
77.4634	408.0000
77.4839	387.0000
77.5044	415.0000
77.5248	412.0000
77.5453	411.0000
77.5658	422.0000
77.5863	419.0000
77.6067	438.0000
77.6272	413.0000
77.6477	405.0000
77.6682	424.0000
77.6886	452.0000
77.7091	401.0000
77.7296	433.0000
77.7501	390.0000
77.7705	457.0000
77.7910	410.0000
77.8115	441.0000
77.8320	444.0000
77.8525	409.0000
77.8729	379.0000
77.8934	431.0000
77.9139	383.0000
77.9344	405.0000
77.9548	411.0000
77.9753	394.0000
77.9958	412.0000
78.0163	452.0000
78.0367	407.0000
78.0572	409.0000
78.0777	414.0000
78.0982	438.0000
78.1186	430.0000
78.1391	422.0000
78.1596	427.0000
78.1801	444.0000
78.2005	418.0000
78.2210	427.0000
78.2415	449.0000
78.2620	433.0000
78.2824	474.0000
78.3029	457.0000
78.3234	458.0000
78.3439	432.0000
78.3643	441.0000
78.3848	434.0000
78.4053	444.0000
78.4258	401.0000
78.4462	421.0000
78.4667	391.0000
78.4872	417.0000
78.5077	425.0000
78.5281	437.0000
78.5486	440.0000
78.5691	467.0000
78.5896	399.0000
78.6101	453.0000
78.6305	436.0000
78.6510	436.0000
78.6715	458.0000
78.6920	453.0000
78.7124	437.0000
78.7329	470.0000
78.7534	483.0000
78.7739	479.0000
78.7943	404.0000
78.8148	439.0000
78.8353	486.0000
78.8558	464.0000
78.8762	453.0000
78.8967	465.0000
78.9172	456.0000
78.9377	465.0000
78.9581	450.0000
78.9786	461.0000
78.9991	452.0000
79.0196	460.0000
79.0400	509.0000
79.0605	431.0000
79.0810	460.0000
79.1015	462.0000
79.1219	422.0000
79.1424	471.0000
79.1629	467.0000
79.1834	433.0000
79.2038	465.0000
79.2243	506.0000
79.2448	490.0000
79.2653	467.0000
79.2857	476.0000
79.3062	475.0000
79.3267	446.0000
79.3472	429.0000
79.3677	444.0000
79.3881	460.0000
79.4086	475.0000
79.4291	481.0000
79.4496	466.0000
79.4700	502.0000
79.4905	444.0000
79.5110	454.0000
79.5315	448.0000
79.5519	476.0000
79.5724	501.0000
79.5929	433.0000
79.6134	469.0000
79.6338	483.0000
79.6543	483.0000
79.6748	463.0000
79.6953	468.0000
79.7157	488.0000
79.7362	488.0000
79.7567	452.0000
79.7772	506.0000
79.7976	471.0000
79.8181	485.0000
79.8386	496.0000
79.8591	453.0000
79.8795	484.0000
79.9000	413.0000
79.9205	474.0000
79.9410	457.0000
79.9614	514.0000
79.9819	506.0000
80.0024	510.0000
80.0229	476.0000
80.0433	500.0000
80.0638	501.0000
80.0843	525.0000
80.1048	485.0000
80.1252	476.0000
80.1457	520.0000
80.1662	533.0000
80.1867	490.0000
80.2072	505.0000
80.2276	541.0000
80.2481	505.0000
80.2686	496.0000
80.2891	513.0000
80.3095	489.0000
80.3300	515.0000
80.3505	545.0000
80.3710	501.0000
80.3914	526.0000
80.4119	508.0000
80.4324	542.0000
80.4529	524.0000
80.4733	526.0000
80.4938	575.0000
80.5143	529.0000
80.5348	547.0000
80.5552	528.0000
80.5757	542.0000
80.5962	524.0000
80.6167	569.0000
80.6371	520.0000
80.6576	517.0000
80.6781	564.0000
80.6986	552.0000
80.7190	528.0000
80.7395	528.0000
80.7600	533.0000
80.7805	562.0000
80.8009	570.0000
80.8214	594.0000
80.8419	607.0000
80.8624	534.0000
80.8828	571.0000
80.9033	567.0000
80.9238	603.0000
80.9443	546.0000
80.9648	613.0000
80.9852	569.0000
81.0057	584.0000
81.0262	597.0000
81.0467	603.0000
81.0671	630.0000
81.0876	572.0000
81.1081	636.0000
81.1286	607.0000
81.1490	622.0000
81.1695	635.0000
81.1900	605.0000
81.2105	603.0000
81.2309	610.0000
81.2514	620.0000
81.2719	655.0000
81.2924	667.0000
81.3128	662.0000
81.3333	625.0000
81.3538	663.0000
81.3743	632.0000
81.3947	662.0000
81.4152	711.0000
81.4357	666.0000
81.4562	725.0000
81.4766	702.0000
81.4971	682.0000
81.5176	702.0000
81.5381	655.0000
81.5585	717.0000
81.5790	670.0000
81.5995	683.0000
81.6200	731.0000
81.6404	764.0000
81.6609	704.0000
81.6814	745.0000
81.7019	737.0000
81.7223	752.0000
81.7428	766.0000
81.7633	751.0000
81.7838	712.0000
81.8043	793.0000
81.8247	788.0000
81.8452	773.0000
81.8657	732.0000
81.8862	771.0000
81.9066	787.0000
81.9271	739.0000
81.9476	799.0000
81.9681	770.0000
81.9885	814.0000
82.0090	803.0000
82.0295	773.0000
82.0500	825.0000
82.0704	767.0000
82.0909	814.0000
82.1114	786.0000
82.1319	750.0000
82.1523	770.0000
82.1728	763.0000
82.1933	812.0000
82.2138	738.0000
82.2342	786.0000
82.2547	812.0000
82.2752	732.0000
82.2957	767.0000
82.3161	774.0000
82.3366	747.0000
82.3571	803.0000
82.3776	717.0000
82.3980	764.0000
82.4185	764.0000
82.4390	789.0000
82.4595	794.0000
82.4799	752.0000
82.5004	725.0000
82.5209	766.0000
82.5414	775.0000
82.5619	718.0000
82.5823	737.0000
82.6028	702.0000
82.6233	748.0000
82.6438	775.0000
82.6642	696.0000
82.6847	711.0000
82.7052	759.0000
82.7257	752.0000
82.7461	693.0000
82.7666	692.0000
82.7871	726.0000
82.8076	691.0000
82.8280	723.0000
82.8485	729.0000
82.8690	705.0000
82.8895	741.0000
82.9099	690.0000
82.9304	738.0000
82.9509	713.0000
82.9714	704.0000
82.9918	719.0000
83.0123	733.0000
83.0328	688.0000
83.0533	677.0000
83.0737	685.0000
83.0942	656.0000
83.1147	686.0000
83.1352	687.0000
83.1556	690.0000
83.1761	669.0000
83.1966	687.0000
83.2171	644.0000
83.2375	721.0000
83.2580	718.0000
83.2785	652.0000
83.2990	677.0000
83.3195	685.0000
83.3399	653.0000
83.3604	658.0000
83.3809	683.0000
83.4014	667.0000
83.4218	703.0000
83.4423	673.0000
83.4628	668.0000
83.4833	676.0000
83.5037	658.0000
83.5242	641.0000
83.5447	638.0000
83.5652	662.0000
83.5856	706.0000
83.6061	608.0000
83.6266	672.0000
83.6471	641.0000
83.6675	644.0000
83.6880	650.0000
83.7085	659.0000
83.7290	634.0000
83.7494	643.0000
83.7699	646.0000
83.7904	643.0000
83.8109	637.0000
83.8313	626.0000
83.8518	681.0000
83.8723	649.0000
83.8928	650.0000
83.9132	653.0000
83.9337	633.0000
83.9542	644.0000
83.9747	680.0000
83.9951	668.0000
84.0156	681.0000
84.0361	705.0000
84.0566	617.0000
84.0770	672.0000
84.0975	661.0000
84.1180	649.0000
84.1385	608.0000
84.1590	672.0000
84.1794	653.0000
84.1999	654.0000
84.2204	659.0000
84.2409	646.0000
84.2613	629.0000
84.2818	659.0000
84.3023	669.0000
84.3228	600.0000
84.3432	622.0000
84.3637	619.0000
84.3842	634.0000
84.4047	667.0000
84.4251	649.0000
84.4456	606.0000
84.4661	568.0000
84.4866	618.0000
84.5070	629.0000
84.5275	602.0000
84.5480	628.0000
84.5685	631.0000
84.5889	610.0000
84.6094	647.0000
84.6299	587.0000
84.6504	639.0000
84.6708	594.0000
84.6913	601.0000
84.7118	577.0000
84.7323	615.0000
84.7527	577.0000
84.7732	581.0000
84.7937	581.0000
84.8142	597.0000
84.8346	566.0000
84.8551	595.0000
84.8756	580.0000
84.8961	523.0000
84.9166	571.0000
84.9370	561.0000
84.9575	580.0000
84.9780	563.0000
84.9985	598.0000
85.0189	549.0000
85.0394	578.0000
85.0599	567.0000
85.0804	528.0000
85.1008	580.0000
85.1213	540.0000
85.1418	562.0000
85.1623	518.0000
85.1827	561.0000
85.2032	534.0000
85.2237	523.0000
85.2442	499.0000
85.2646	504.0000
85.2851	559.0000
85.3056	523.0000
85.3261	522.0000
85.3465	534.0000
85.3670	542.0000
85.3875	503.0000
85.4080	498.0000
85.4284	541.0000
85.4489	534.0000
85.4694	553.0000
85.4899	492.0000
85.5103	528.0000
85.5308	519.0000
85.5513	512.0000
85.5718	460.0000
85.5922	523.0000
85.6127	488.0000
85.6332	510.0000
85.6537	487.0000
85.6741	524.0000
85.6946	511.0000
85.7151	536.0000
85.7356	579.0000
85.7561	484.0000
85.7765	515.0000
85.7970	511.0000
85.8175	488.0000
85.8380	507.0000
85.8584	491.0000
85.8789	471.0000
85.8994	514.0000
85.9199	522.0000
85.9403	475.0000
85.9608	500.0000
85.9813	502.0000
86.0018	486.0000
86.0222	535.0000
86.0427	526.0000
86.0632	548.0000
86.0837	558.0000
86.1041	548.0000
86.1246	505.0000
86.1451	487.0000
86.1656	517.0000
86.1860	494.0000
86.2065	502.0000
86.2270	497.0000
86.2475	524.0000
86.2679	485.0000
86.2884	515.0000
86.3089	502.0000
86.3294	513.0000
86.3498	521.0000
86.3703	544.0000
86.3908	516.0000
86.4113	491.0000
86.4317	510.0000
86.4522	511.0000
86.4727	497.0000
86.4932	490.0000
86.5137	483.0000
86.5341	525.0000
86.5546	540.0000
86.5751	500.0000
86.5956	481.0000
86.6160	531.0000
86.6365	482.0000
86.6570	496.0000
86.6775	466.0000
86.6979	517.0000
86.7184	489.0000
86.7389	482.0000
86.7594	527.0000
86.7798	508.0000
86.8003	509.0000
86.8208	484.0000
86.8413	507.0000
86.8617	481.0000
86.8822	513.0000
86.9027	493.0000
86.9232	495.0000
86.9436	460.0000
86.9641	481.0000
86.9846	493.0000
87.0051	487.0000
87.0255	478.0000
87.0460	526.0000
87.0665	482.0000
87.0870	485.0000
87.1074	479.0000
87.1279	490.0000
87.1484	505.0000
87.1689	474.0000
87.1893	478.0000
87.2098	533.0000
87.2303	486.0000
87.2508	510.0000
87.2713	455.0000
87.2917	461.0000
87.3122	449.0000
87.3327	488.0000
87.3532	463.0000
87.3736	484.0000
87.3941	476.0000
87.4146	493.0000
87.4351	491.0000
87.4555	468.0000
87.4760	481.0000
87.4965	462.0000
87.5170	472.0000
87.5374	499.0000
87.5579	448.0000
87.5784	476.0000
87.5989	434.0000
87.6193	436.0000
87.6398	421.0000
87.6603	447.0000
87.6808	462.0000
87.7012	477.0000
87.7217	468.0000
87.7422	443.0000
87.7627	407.0000
87.7831	441.0000
87.8036	451.0000
87.8241	407.0000
87.8446	451.0000
87.8650	481.0000
87.8855	447.0000
87.9060	453.0000
87.9265	438.0000
87.9469	415.0000
87.9674	430.0000
87.9879	431.0000
88.0084	420.0000
88.0288	409.0000
88.0493	429.0000
88.0698	467.0000
88.0903	436.0000
88.1108	429.0000
88.1312	435.0000
88.1517	438.0000
88.1722	450.0000
88.1927	429.0000
88.2131	447.0000
88.2336	391.0000
88.2541	419.0000
88.2746	420.0000
88.2950	441.0000
88.3155	423.0000
88.3360	420.0000
88.3565	389.0000
88.3769	414.0000
88.3974	404.0000
88.4179	413.0000
88.4384	405.0000
88.4588	369.0000
88.4793	421.0000
88.4998	422.0000
88.5203	389.0000
88.5407	375.0000
88.5612	406.0000
88.5817	383.0000
88.6022	426.0000
88.6226	401.0000
88.6431	379.0000
88.6636	408.0000
88.6841	391.0000
88.7045	420.0000
88.7250	404.0000
88.7455	396.0000
88.7660	371.0000
88.7864	398.0000
88.8069	405.0000
88.8274	336.0000
88.8479	391.0000
88.8684	375.0000
88.8888	427.0000
88.9093	402.0000
88.9298	432.0000
88.9503	361.0000
88.9707	384.0000
88.9912	414.0000
89.0117	368.0000
89.0322	365.0000
89.0526	392.0000
89.0731	372.0000
89.0936	390.0000
89.1141	405.0000
89.1345	382.0000
89.1550	406.0000
89.1755	385.0000
89.1960	380.0000
89.2164	418.0000
89.2369	405.0000
89.2574	396.0000
89.2779	404.0000
89.2983	417.0000
89.3188	362.0000
89.3393	388.0000
89.3598	409.0000
89.3802	430.0000
89.4007	367.0000
89.4212	402.0000
89.4417	377.0000
89.4621	378.0000
89.4826	386.0000
89.5031	393.0000
89.5236	366.0000
89.5440	362.0000
89.5645	384.0000
89.5850	382.0000
89.6055	404.0000
89.6259	386.0000
89.6464	379.0000
89.6669	364.0000
89.6874	422.0000
89.7079	425.0000
89.7283	374.0000
89.7488	407.0000
89.7693	407.0000
89.7898	402.0000
89.8102	396.0000
89.8307	395.0000
89.8512	420.0000
89.8717	365.0000
89.8921	390.0000
89.9126	397.0000
89.9331	424.0000
89.9536	403.0000
89.9740	389.0000
89.9945	361.0000
90.0150	377.0000
