5.0001	1651.0000
5.0206	1627.0000
5.0411	1599.0000
5.0615	1540.0000
5.0820	1634.0000
5.1025	1616.0000
5.1230	1567.0000
5.1434	1572.0000
5.1639	1634.0000
5.1844	1522.0000
5.2049	1624.0000
5.2253	1536.0000
5.2458	1493.0000
5.2663	1526.0000
5.2868	1575.0000
5.3072	1460.0000
5.3277	1509.0000
5.3482	1462.0000
5.3687	1470.0000
5.3891	1507.0000
5.4096	1487.0000
5.4301	1475.0000
5.4506	1407.0000
5.4710	1535.0000
5.4915	1421.0000
5.5120	1431.0000
5.5325	1411.0000
5.5529	1448.0000
5.5734	1477.0000
5.5939	1380.0000
5.6144	1405.0000
5.6348	1355.0000
5.6553	1386.0000
5.6758	1409.0000
5.6963	1326.0000
5.7167	1316.0000
5.7372	1343.0000
5.7577	1332.0000
5.7782	1329.0000
5.7987	1331.0000
5.8191	1332.0000
5.8396	1352.0000
5.8601	1332.0000
5.8806	1237.0000
5.9010	1253.0000
5.9215	1305.0000
5.9420	1287.0000
5.9625	1201.0000
5.9829	1305.0000
6.0034	1269.0000
6.0239	1175.0000
6.0444	1224.0000
6.0648	1252.0000
6.0853	1252.0000
6.1058	1238.0000
6.1263	1155.0000
6.1467	1235.0000
6.1672	1154.0000
6.1877	1132.0000
6.2082	1225.0000
6.2286	1161.0000
6.2491	1151.0000
6.2696	1116.0000
6.2901	1116.0000
6.3105	1181.0000
6.3310	1178.0000
6.3515	1138.0000
6.3720	1057.0000
6.3924	1116.0000
6.4129	1100.0000
6.4334	1076.0000
6.4539	1067.0000
6.4743	1105.0000
6.4948	1063.0000
6.5153	1051.0000
6.5358	1075.0000
6.5562	1035.0000
6.5767	1044.0000
6.5972	1117.0000
6.6177	1061.0000
6.6382	1053.0000
6.6586	1069.0000
6.6791	972.0000
6.6996	998.0000
6.7201	1003.0000
6.7405	977.0000
6.7610	960.0000
6.7815	996.0000
6.8020	971.0000
6.8224	990.0000
6.8429	956.0000
6.8634	997.0000
6.8839	971.0000
6.9043	977.0000
6.9248	897.0000
6.9453	942.0000
6.9658	975.0000
6.9862	886.0000
7.0067	907.0000
7.0272	948.0000
7.0477	880.0000
7.0681	871.0000
7.0886	883.0000
7.1091	865.0000
7.1296	870.0000
7.1500	840.0000
7.1705	909.0000
7.1910	853.0000
7.2115	853.0000
7.2319	932.0000
7.2524	809.0000
7.2729	820.0000
7.2934	854.0000
7.3138	853.0000
7.3343	784.0000
7.3548	813.0000
7.3753	850.0000
7.3958	802.0000
7.4162	794.0000
7.4367	761.0000
7.4572	806.0000
7.4777	795.0000
7.4981	822.0000
7.5186	756.0000
7.5391	786.0000
7.5596	784.0000
7.5800	804.0000
7.6005	790.0000
7.6210	773.0000
7.6415	694.0000
7.6619	784.0000
7.6824	766.0000
7.7029	724.0000
7.7234	739.0000
7.7438	704.0000
7.7643	758.0000
7.7848	740.0000
7.8053	730.0000
7.8257	723.0000
7.8462	759.0000
7.8667	677.0000
7.8872	695.0000
7.9076	750.0000
7.9281	651.0000
7.9486	710.0000
7.9691	713.0000
7.9895	683.0000
8.0100	657.0000
8.0305	681.0000
8.0510	622.0000
8.0714	632.0000
8.0919	698.0000
8.1124	646.0000
8.1329	664.0000
8.1533	654.0000
8.1738	675.0000
8.1943	647.0000
8.2148	636.0000
8.2353	666.0000
8.2557	682.0000
8.2762	644.0000
8.2967	649.0000
8.3172	613.0000
8.3376	620.0000
8.3581	591.0000
8.3786	567.0000
8.3991	636.0000
8.4195	644.0000
8.4400	611.0000
8.4605	605.0000
8.4810	635.0000
8.5014	608.0000
8.5219	581.0000
8.5424	598.0000
8.5629	624.0000
8.5833	538.0000
8.6038	569.0000
8.6243	568.0000
8.6448	595.0000
8.6652	556.0000
8.6857	578.0000
8.7062	582.0000
8.7267	583.0000
8.7471	618.0000
8.7676	569.0000
8.7881	562.0000
8.8086	582.0000
8.8290	576.0000
8.8495	581.0000
8.8700	536.0000
8.8905	533.0000
8.9109	553.0000
8.9314	558.0000
8.9519	539.0000
8.9724	548.0000
8.9929	520.0000
9.0133	536.0000
9.0338	535.0000
9.0543	577.0000
9.0748	578.0000
9.0952	545.0000
9.1157	543.0000
9.1362	517.0000
9.1567	533.0000
9.1771	535.0000
9.1976	532.0000
9.2181	495.0000
9.2386	524.0000
9.2590	524.0000
9.2795	524.0000
9.3000	534.0000
9.3205	508.0000
9.3409	556.0000
9.3614	510.0000
9.3819	576.0000
9.4024	540.0000
9.4228	524.0000
9.4433	571.0000
9.4638	535.0000
9.4843	512.0000
9.5047	529.0000
9.5252	537.0000
9.5457	541.0000
9.5662	485.0000
9.5866	495.0000
9.6071	515.0000
9.6276	479.0000
9.6481	516.0000
9.6685	516.0000
9.6890	509.0000
9.7095	481.0000
9.7300	523.0000
9.7505	526.0000
9.7709	510.0000
9.7914	537.0000
9.8119	522.0000
9.8324	469.0000
9.8528	479.0000
9.8733	484.0000
9.8938	474.0000
9.9143	496.0000
9.9347	526.0000
9.9552	522.0000
9.9757	468.0000
9.9962	451.0000
10.0166	457.0000
10.0371	476.0000
10.0576	476.0000
10.0781	470.0000
10.0985	515.0000
10.1190	502.0000
10.1395	444.0000
10.1600	455.0000
10.1804	481.0000
10.2009	469.0000
10.2214	430.0000
10.2419	456.0000
10.2623	471.0000
10.2828	470.0000
10.3033	524.0000
10.3238	438.0000
10.3442	507.0000
10.3647	453.0000
10.3852	457.0000
10.4057	486.0000
10.4261	456.0000
10.4466	456.0000
10.4671	470.0000
10.4876	441.0000
10.5080	449.0000
10.5285	453.0000
10.5490	492.0000
10.5695	499.0000
10.5900	495.0000
10.6104	497.0000
10.6309	487.0000
10.6514	457.0000
10.6719	468.0000
10.6923	424.0000
10.7128	494.0000
10.7333	452.0000
10.7538	415.0000
10.7742	454.0000
10.7947	467.0000
10.8152	484.0000
10.8357	481.0000
10.8561	471.0000
10.8766	481.0000
10.8971	482.0000
10.9176	439.0000
10.9380	477.0000
10.9585	449.0000
10.9790	447.0000
10.9995	434.0000
11.0199	419.0000
11.0404	479.0000
11.0609	439.0000
11.0814	470.0000
11.1018	467.0000
11.1223	460.0000
11.1428	433.0000
11.1633	414.0000
11.1837	425.0000
11.2042	445.0000
11.2247	477.0000
11.2452	478.0000
11.2656	474.0000
11.2861	438.0000
11.3066	449.0000
11.3271	450.0000
11.3476	408.0000
11.3680	429.0000
11.3885	424.0000
11.4090	403.0000
11.4295	475.0000
11.4499	485.0000
11.4704	450.0000
11.4909	477.0000
11.5114	399.0000
11.5318	472.0000
11.5523	462.0000
11.5728	433.0000
11.5933	412.0000
11.6137	421.0000
11.6342	410.0000
11.6547	438.0000
11.6752	434.0000
11.6956	461.0000
11.7161	440.0000
11.7366	441.0000
11.7571	430.0000
11.7775	421.0000
11.7980	449.0000
11.8185	446.0000
11.8390	433.0000
11.8594	436.0000
11.8799	442.0000
11.9004	441.0000
11.9209	442.0000
11.9413	451.0000
11.9618	430.0000
11.9823	422.0000
12.0028	461.0000
12.0232	423.0000
12.0437	434.0000
12.0642	443.0000
12.0847	433.0000
12.1051	433.0000
12.1256	498.0000
12.1461	432.0000
12.1666	466.0000
12.1871	438.0000
12.2075	439.0000
12.2280	460.0000
12.2485	463.0000
12.2690	436.0000
12.2894	424.0000
12.3099	430.0000
12.3304	458.0000
12.3509	455.0000
12.3713	463.0000
12.3918	467.0000
12.4123	415.0000
12.4328	424.0000
12.4532	454.0000
12.4737	465.0000
12.4942	445.0000
12.5147	436.0000
12.5351	399.0000
12.5556	454.0000
12.5761	402.0000
12.5966	476.0000
12.6170	412.0000
12.6375	427.0000
12.6580	431.0000
12.6785	412.0000
12.6989	457.0000
12.7194	443.0000
12.7399	495.0000
12.7604	429.0000
12.7808	410.0000
12.8013	425.0000
12.8218	458.0000
12.8423	466.0000
12.8627	421.0000
12.8832	422.0000
12.9037	443.0000
12.9242	445.0000
12.9447	436.0000
12.9651	401.0000
12.9856	465.0000
13.0061	413.0000
13.0266	456.0000
13.0470	433.0000
13.0675	458.0000
13.0880	468.0000
13.1085	459.0000
13.1289	438.0000
13.1494	444.0000
13.1699	459.0000
13.1904	435.0000
13.2108	446.0000
13.2313	456.0000
13.2518	456.0000
13.2723	478.0000
13.2927	466.0000
13.3132	425.0000
13.3337	458.0000
13.3542	440.0000
13.3746	453.0000
13.3951	454.0000
13.4156	428.0000
13.4361	420.0000
13.4565	446.0000
13.4770	420.0000
13.4975	427.0000
13.5180	466.0000
13.5384	452.0000
13.5589	449.0000
13.5794	424.0000
13.5999	411.0000
13.6203	463.0000
13.6408	431.0000
13.6613	408.0000
13.6818	433.0000
13.7023	474.0000
13.7227	411.0000
13.7432	429.0000
13.7637	451.0000
13.7842	454.0000
13.8046	430.0000
13.8251	409.0000
13.8456	448.0000
13.8661	464.0000
13.8865	423.0000
13.9070	464.0000
13.9275	460.0000
13.9480	432.0000
13.9684	501.0000
13.9889	426.0000
14.0094	499.0000
14.0299	447.0000
14.0503	452.0000
14.0708	455.0000
14.0913	419.0000
14.1118	475.0000
14.1322	468.0000
14.1527	412.0000
14.1732	489.0000
14.1937	453.0000
14.2141	445.0000
14.2346	456.0000
14.2551	449.0000
14.2756	439.0000
14.2960	463.0000
14.3165	443.0000
14.3370	445.0000
14.3575	433.0000
14.3779	449.0000
14.3984	452.0000
14.4189	436.0000
14.4394	453.0000
14.4598	485.0000
14.4803	465.0000
14.5008	499.0000
14.5213	458.0000
14.5418	487.0000
14.5622	433.0000
14.5827	481.0000
14.6032	459.0000
14.6237	454.0000
14.6441	424.0000
14.6646	458.0000
14.6851	437.0000
14.7056	427.0000
14.7260	475.0000
14.7465	463.0000
14.7670	449.0000
14.7875	483.0000
14.8079	464.0000
14.8284	438.0000
14.8489	479.0000
14.8694	472.0000
14.8898	510.0000
14.9103	442.0000
14.9308	487.0000
14.9513	460.0000
14.9717	461.0000
14.9922	474.0000
15.0127	436.0000
15.0332	444.0000
15.0536	443.0000
15.0741	441.0000
15.0946	495.0000
15.1151	472.0000
15.1355	466.0000
15.1560	471.0000
15.1765	457.0000
15.1970	442.0000
15.2174	452.0000
15.2379	473.0000
15.2584	487.0000
15.2789	475.0000
15.2994	453.0000
15.3198	479.0000
15.3403	457.0000
15.3608	478.0000
15.3813	490.0000
15.4017	479.0000
15.4222	443.0000
15.4427	477.0000
15.4632	452.0000
15.4836	433.0000
15.5041	436.0000
15.5246	475.0000
15.5451	494.0000
15.5655	461.0000
15.5860	429.0000
15.6065	509.0000
15.6270	486.0000
15.6474	476.0000
15.6679	448.0000
15.6884	481.0000
15.7089	497.0000
15.7293	435.0000
15.7498	485.0000
15.7703	501.0000
15.7908	467.0000
15.8112	454.0000
15.8317	488.0000
15.8522	437.0000
15.8727	463.0000
15.8931	424.0000
15.9136	557.0000
15.9341	485.0000
15.9546	496.0000
15.9750	522.0000
15.9955	497.0000
16.0160	477.0000
16.0365	486.0000
16.0569	512.0000
16.0774	507.0000
16.0979	522.0000
16.1184	459.0000
16.1389	507.0000
16.1593	476.0000
16.1798	498.0000
16.2003	500.0000
16.2208	502.0000
16.2412	517.0000
16.2617	499.0000
16.2822	472.0000
16.3027	521.0000
16.3231	465.0000
16.3436	503.0000
16.3641	486.0000
16.3846	490.0000
16.4050	498.0000
16.4255	509.0000
16.4460	484.0000
16.4665	530.0000
16.4869	486.0000
16.5074	481.0000
16.5279	468.0000
16.5484	515.0000
16.5688	464.0000
16.5893	475.0000
16.6098	498.0000
16.6303	528.0000
16.6507	507.0000
16.6712	527.0000
16.6917	503.0000
16.7122	517.0000
16.7326	502.0000
16.7531	467.0000
16.7736	506.0000
16.7941	461.0000
16.8145	517.0000
16.8350	498.0000
16.8555	433.0000
16.8760	511.0000
16.8965	493.0000
16.9169	479.0000
16.9374	519.0000
16.9579	515.0000
16.9784	482.0000
16.9988	499.0000
17.0193	481.0000
17.0398	503.0000
17.0603	476.0000
17.0807	500.0000
17.1012	491.0000
17.1217	500.0000
17.1422	478.0000
17.1626	521.0000
17.1831	541.0000
17.2036	491.0000
17.2241	496.0000
17.2445	527.0000
17.2650	448.0000
17.2855	484.0000
17.3060	487.0000
17.3264	505.0000
17.3469	483.0000
17.3674	491.0000
17.3879	503.0000
17.4083	515.0000
17.4288	521.0000
17.4493	467.0000
17.4698	493.0000
17.4902	501.0000
17.5107	490.0000
17.5312	447.0000
17.5517	522.0000
17.5721	508.0000
17.5926	511.0000
17.6131	512.0000
17.6336	522.0000
17.6540	570.0000
17.6745	459.0000
17.6950	482.0000
17.7155	463.0000
17.7360	528.0000
17.7564	502.0000
17.7769	477.0000
17.7974	529.0000
17.8179	517.0000
17.8383	560.0000
17.8588	527.0000
17.8793	508.0000
17.8998	505.0000
17.9202	504.0000
17.9407	472.0000
17.9612	464.0000
17.9817	485.0000
18.0021	527.0000
18.0226	461.0000
18.0431	508.0000
18.0636	486.0000
18.0840	529.0000
18.1045	524.0000
18.1250	508.0000
18.1455	502.0000
18.1659	481.0000
18.1864	528.0000
18.2069	502.0000
18.2274	493.0000
18.2478	493.0000
18.2683	458.0000
18.2888	511.0000
18.3093	498.0000
18.3297	524.0000
18.3502	500.0000
18.3707	528.0000
18.3912	534.0000
18.4116	502.0000
18.4321	496.0000
18.4526	492.0000
18.4731	521.0000
18.4936	526.0000
18.5140	489.0000
18.5345	530.0000
18.5550	479.0000
18.5755	526.0000
18.5959	505.0000
18.6164	479.0000
18.6369	507.0000
18.6574	539.0000
18.6778	525.0000
18.6983	526.0000
18.7188	538.0000
18.7393	503.0000
18.7597	477.0000
18.7802	510.0000
18.8007	503.0000
18.8212	528.0000
18.8416	521.0000
18.8621	522.0000
18.8826	494.0000
18.9031	573.0000
18.9235	558.0000
18.9440	544.0000
18.9645	491.0000
18.9850	527.0000
19.0054	510.0000
19.0259	528.0000
19.0464	488.0000
19.0669	522.0000
19.0873	492.0000
19.1078	506.0000
19.1283	521.0000
19.1488	488.0000
19.1692	515.0000
19.1897	483.0000
19.2102	492.0000
19.2307	549.0000
19.2512	515.0000
19.2716	529.0000
19.2921	546.0000
19.3126	539.0000
19.3331	499.0000
19.3535	522.0000
19.3740	521.0000
19.3945	514.0000
19.4150	512.0000
19.4354	533.0000
19.4559	481.0000
19.4764	505.0000
19.4969	501.0000
19.5173	520.0000
19.5378	515.0000
19.5583	509.0000
19.5788	519.0000
19.5992	533.0000
19.6197	557.0000
19.6402	508.0000
19.6607	495.0000
19.6811	512.0000
19.7016	580.0000
19.7221	524.0000
19.7426	572.0000
19.7630	522.0000
19.7835	551.0000
19.8040	534.0000
19.8245	566.0000
19.8449	513.0000
19.8654	527.0000
19.8859	535.0000
19.9064	538.0000
19.9268	525.0000
19.9473	532.0000
19.9678	538.0000
19.9883	519.0000
20.0087	555.0000
20.0292	530.0000
20.0497	546.0000
20.0702	518.0000
20.0907	541.0000
20.1111	581.0000
20.1316	576.0000
20.1521	580.0000
20.1726	511.0000
20.1930	549.0000
20.2135	548.0000
20.2340	538.0000
20.2545	518.0000
20.2749	560.0000
20.2954	554.0000
20.3159	506.0000
20.3364	542.0000
20.3568	559.0000
20.3773	535.0000
20.3978	573.0000
20.4183	487.0000
20.4387	567.0000
20.4592	549.0000
20.4797	567.0000
20.5002	583.0000
20.5206	528.0000
20.5411	567.0000
20.5616	551.0000
20.5821	550.0000
20.6025	554.0000
20.6230	555.0000
20.6435	560.0000
20.6640	543.0000
20.6844	555.0000
20.7049	611.0000
20.7254	542.0000
20.7459	524.0000
20.7663	529.0000
20.7868	535.0000
20.8073	522.0000
20.8278	537.0000
20.8483	571.0000
20.8687	548.0000
20.8892	540.0000
20.9097	575.0000
20.9302	538.0000
20.9506	550.0000
20.9711	606.0000
20.9916	539.0000
21.0121	531.0000
21.0325	542.0000
21.0530	547.0000
21.0735	569.0000
21.0940	598.0000
21.1144	566.0000
21.1349	549.0000
21.1554	577.0000
21.1759	543.0000
21.1963	544.0000
21.2168	534.0000
21.2373	533.0000
21.2578	531.0000
21.2782	561.0000
21.2987	530.0000
21.3192	576.0000
21.3397	541.0000
21.3601	608.0000
21.3806	565.0000
21.4011	529.0000
21.4216	539.0000
21.4420	555.0000
21.4625	583.0000
21.4830	544.0000
21.5035	587.0000
21.5239	541.0000
21.5444	566.0000
21.5649	551.0000
21.5854	535.0000
21.6058	546.0000
21.6263	565.0000
21.6468	580.0000
21.6673	566.0000
21.6878	545.0000
21.7082	605.0000
21.7287	577.0000
21.7492	565.0000
21.7697	550.0000
21.7901	570.0000
21.8106	569.0000
21.8311	554.0000
21.8516	537.0000
21.8720	573.0000
21.8925	570.0000
21.9130	551.0000
21.9335	562.0000
21.9539	582.0000
21.9744	611.0000
21.9949	591.0000
22.0154	581.0000
22.0358	635.0000
22.0563	613.0000
22.0768	598.0000
22.0973	557.0000
22.1177	581.0000
22.1382	558.0000
22.1587	616.0000
22.1792	552.0000
22.1996	667.0000
22.2201	551.0000
22.2406	574.0000
22.2611	614.0000
22.2815	560.0000
22.3020	538.0000
22.3225	584.0000
22.3430	590.0000
22.3634	607.0000
22.3839	602.0000
22.4044	579.0000
22.4249	572.0000
22.4454	583.0000
22.4658	610.0000
22.4863	607.0000
22.5068	616.0000
22.5273	552.0000
22.5477	616.0000
22.5682	581.0000
22.5887	567.0000
22.6092	568.0000
22.6296	594.0000
22.6501	612.0000
22.6706	605.0000
22.6911	567.0000
22.7115	567.0000
22.7320	549.0000
22.7525	574.0000
22.7730	610.0000
22.7934	597.0000
22.8139	582.0000
22.8344	591.0000
22.8549	652.0000
22.8753	616.0000
22.8958	638.0000
22.9163	619.0000
22.9368	627.0000
22.9572	612.0000
22.9777	629.0000
22.9982	566.0000
23.0187	601.0000
23.0391	595.0000
23.0596	604.0000
23.0801	618.0000
23.1006	617.0000
23.1210	568.0000
23.1415	633.0000
23.1620	610.0000
23.1825	609.0000
23.2030	570.0000
23.2234	656.0000
23.2439	570.0000
23.2644	634.0000
23.2849	669.0000
23.3053	647.0000
23.3258	631.0000
23.3463	642.0000
23.3668	611.0000
23.3872	627.0000
23.4077	638.0000
23.4282	625.0000
23.4487	641.0000
23.4691	598.0000
23.4896	594.0000
23.5101	609.0000
23.5306	604.0000
23.5510	646.0000
23.5715	620.0000
23.5920	680.0000
23.6125	646.0000
23.6329	649.0000
23.6534	615.0000
23.6739	621.0000
23.6944	663.0000
23.7148	638.0000
23.7353	661.0000
23.7558	666.0000
23.7763	601.0000
23.7967	616.0000
23.8172	625.0000
23.8377	619.0000
23.8582	667.0000
23.8786	610.0000
23.8991	662.0000
23.9196	614.0000
23.9401	616.0000
23.9605	647.0000
23.9810	654.0000
24.0015	656.0000
24.0220	661.0000
24.0425	619.0000
24.0629	615.0000
24.0834	598.0000
24.1039	648.0000
24.1244	634.0000
24.1448	642.0000
24.1653	611.0000
24.1858	573.0000
24.2063	650.0000
24.2267	666.0000
24.2472	629.0000
24.2677	625.0000
24.2882	637.0000
24.3086	606.0000
24.3291	608.0000
24.3496	646.0000
24.3701	641.0000
24.3905	626.0000
24.4110	651.0000
24.4315	633.0000
24.4520	672.0000
24.4724	625.0000
24.4929	652.0000
24.5134	596.0000
24.5339	619.0000
24.5543	634.0000
24.5748	665.0000
24.5953	652.0000
24.6158	699.0000
24.6362	634.0000
24.6567	617.0000
24.6772	614.0000
24.6977	656.0000
24.7181	667.0000
24.7386	629.0000
24.7591	636.0000
24.7796	621.0000
24.8001	650.0000
24.8205	648.0000
24.8410	591.0000
24.8615	643.0000
24.8820	646.0000
24.9024	618.0000
24.9229	638.0000
24.9434	646.0000
24.9639	626.0000
24.9843	625.0000
25.0048	623.0000
25.0253	628.0000
25.0458	691.0000
25.0662	592.0000
25.0867	638.0000
25.1072	629.0000
25.1277	681.0000
25.1481	640.0000
25.1686	674.0000
25.1891	648.0000
25.2096	680.0000
25.2300	591.0000
25.2505	614.0000
25.2710	615.0000
25.2915	704.0000
25.3119	670.0000
25.3324	634.0000
25.3529	631.0000
25.3734	635.0000
25.3938	605.0000
25.4143	660.0000
25.4348	613.0000
25.4553	607.0000
25.4757	633.0000
25.4962	656.0000
25.5167	625.0000
25.5372	633.0000
25.5576	641.0000
25.5781	610.0000
25.5986	599.0000
25.6191	623.0000
25.6396	634.0000
25.6600	655.0000
25.6805	628.0000
25.7010	654.0000
25.7215	642.0000
25.7419	605.0000
25.7624	651.0000
25.7829	664.0000
25.8034	620.0000
25.8238	630.0000
25.8443	614.0000
25.8648	641.0000
25.8853	594.0000
25.9057	588.0000
25.9262	608.0000
25.9467	632.0000
25.9672	667.0000
25.9876	617.0000
26.0081	648.0000
26.0286	611.0000
26.0491	633.0000
26.0695	662.0000
26.0900	632.0000
26.1105	638.0000
26.1310	660.0000
26.1514	602.0000
26.1719	640.0000
26.1924	601.0000
26.2129	615.0000
26.2333	628.0000
26.2538	660.0000
26.2743	577.0000
26.2948	660.0000
26.3152	618.0000
26.3357	636.0000
26.3562	632.0000
26.3767	634.0000
26.3972	607.0000
26.4176	654.0000
26.4381	590.0000
26.4586	627.0000
26.4791	615.0000
26.4995	663.0000
26.5200	635.0000
26.5405	595.0000
26.5610	619.0000
26.5814	609.0000
26.6019	625.0000
26.6224	674.0000
26.6429	653.0000
26.6633	619.0000
26.6838	627.0000
26.7043	651.0000
26.7248	619.0000
26.7452	612.0000
26.7657	622.0000
26.7862	605.0000
26.8067	649.0000
26.8271	600.0000
26.8476	597.0000
26.8681	613.0000
26.8886	574.0000
26.9090	607.0000
26.9295	622.0000
26.9500	599.0000
26.9705	600.0000
26.9909	602.0000
27.0114	611.0000
27.0319	607.0000
27.0524	640.0000
27.0728	607.0000
27.0933	601.0000
27.1138	649.0000
27.1343	627.0000
27.1548	609.0000
27.1752	616.0000
27.1957	607.0000
27.2162	612.0000
27.2367	599.0000
27.2571	634.0000
27.2776	574.0000
27.2981	625.0000
27.3186	598.0000
27.3390	605.0000
27.3595	625.0000
27.3800	597.0000
27.4005	585.0000
27.4209	643.0000
27.4414	653.0000
27.4619	579.0000
27.4824	631.0000
27.5028	595.0000
27.5233	595.0000
27.5438	579.0000
27.5643	578.0000
27.5847	638.0000
27.6052	623.0000
27.6257	603.0000
27.6462	583.0000
27.6666	560.0000
27.6871	560.0000
27.7076	584.0000
27.7281	589.0000
27.7485	582.0000
27.7690	589.0000
27.7895	624.0000
27.8100	618.0000
27.8304	634.0000
27.8509	641.0000
27.8714	569.0000
27.8919	588.0000
27.9123	572.0000
27.9328	619.0000
27.9533	575.0000
27.9738	633.0000
27.9943	620.0000
28.0147	590.0000
28.0352	600.0000
28.0557	626.0000
28.0762	592.0000
28.0966	592.0000
28.1171	607.0000
28.1376	571.0000
28.1581	587.0000
28.1785	604.0000
28.1990	592.0000
28.2195	586.0000
28.2400	655.0000
28.2604	651.0000
28.2809	604.0000
28.3014	595.0000
28.3219	607.0000
28.3423	594.0000
28.3628	603.0000
28.3833	618.0000
28.4038	587.0000
28.4242	594.0000
28.4447	613.0000
28.4652	599.0000
28.4857	625.0000
28.5061	597.0000
28.5266	595.0000
28.5471	591.0000
28.5676	595.0000
28.5880	599.0000
28.6085	574.0000
28.6290	639.0000
28.6495	612.0000
28.6699	605.0000
28.6904	601.0000
28.7109	596.0000
28.7314	597.0000
28.7519	646.0000
28.7723	565.0000
28.7928	602.0000
28.8133	575.0000
28.8338	566.0000
28.8542	621.0000
28.8747	597.0000
28.8952	576.0000
28.9157	573.0000
28.9361	618.0000
28.9566	598.0000
28.9771	599.0000
28.9976	576.0000
29.0180	595.0000
29.0385	592.0000
29.0590	595.0000
29.0795	607.0000
29.0999	612.0000
29.1204	627.0000
29.1409	580.0000
29.1614	606.0000
29.1818	589.0000
29.2023	620.0000
29.2228	594.0000
29.2433	632.0000
29.2637	598.0000
29.2842	614.0000
29.3047	609.0000
29.3252	566.0000
29.3456	561.0000
29.3661	610.0000
29.3866	579.0000
29.4071	602.0000
29.4275	618.0000
29.4480	561.0000
29.4685	596.0000
29.4890	582.0000
29.5094	585.0000
29.5299	604.0000
29.5504	622.0000
29.5709	550.0000
29.5914	603.0000
29.6118	618.0000
29.6323	602.0000
29.6528	617.0000
29.6733	581.0000
29.6937	628.0000
29.7142	574.0000
29.7347	608.0000
29.7552	567.0000
29.7756	570.0000
29.7961	636.0000
29.8166	562.0000
29.8371	608.0000
29.8575	611.0000
29.8780	598.0000
29.8985	623.0000
29.9190	605.0000
29.9394	596.0000
29.9599	617.0000
29.9804	643.0000
30.0009	606.0000
30.0213	558.0000
30.0418	617.0000
30.0623	601.0000
30.0828	615.0000
30.1032	568.0000
30.1237	614.0000
30.1442	549.0000
30.1647	563.0000
30.1851	604.0000
30.2056	577.0000
30.2261	585.0000
30.2466	621.0000
30.2670	606.0000
30.2875	611.0000
30.3080	617.0000
30.3285	613.0000
30.3490	578.0000
30.3694	610.0000
30.3899	585.0000
30.4104	579.0000
30.4309	638.0000
30.4513	619.0000
30.4718	588.0000
30.4923	608.0000
30.5128	594.0000
30.5332	606.0000
30.5537	582.0000
30.5742	587.0000
30.5947	594.0000
30.6151	584.0000
30.6356	619.0000
30.6561	584.0000
30.6766	588.0000
30.6970	597.0000
30.7175	590.0000
30.7380	592.0000
30.7585	622.0000
30.7789	621.0000
30.7994	659.0000
30.8199	602.0000
30.8404	627.0000
30.8608	613.0000
30.8813	564.0000
30.9018	626.0000
30.9223	599.0000
30.9427	601.0000
30.9632	606.0000
30.9837	615.0000
31.0042	584.0000
31.0246	623.0000
31.0451	592.0000
31.0656	580.0000
31.0861	584.0000
31.1066	624.0000
31.1270	590.0000
31.1475	580.0000
31.1680	604.0000
31.1885	626.0000
31.2089	596.0000
31.2294	584.0000
31.2499	623.0000
31.2704	622.0000
31.2908	612.0000
31.3113	605.0000
31.3318	649.0000
31.3523	612.0000
31.3727	584.0000
31.3932	598.0000
31.4137	565.0000
31.4342	576.0000
31.4546	597.0000
31.4751	627.0000
31.4956	679.0000
31.5161	601.0000
31.5365	611.0000
31.5570	638.0000
31.5775	616.0000
31.5980	605.0000
31.6184	635.0000
31.6389	633.0000
31.6594	627.0000
31.6799	667.0000
31.7003	598.0000
31.7208	647.0000
31.7413	624.0000
31.7618	609.0000
31.7822	625.0000
31.8027	615.0000
31.8232	625.0000
31.8437	634.0000
31.8641	649.0000
31.8846	654.0000
31.9051	606.0000
31.9256	618.0000
31.9461	651.0000
31.9665	617.0000
31.9870	643.0000
32.0075	603.0000
32.0280	638.0000
32.0484	650.0000
32.0689	627.0000
32.0894	591.0000
32.1099	628.0000
32.1303	667.0000
32.1508	652.0000
32.1713	638.0000
32.1918	646.0000
32.2122	685.0000
32.2327	660.0000
32.2532	648.0000
32.2737	631.0000
32.2941	669.0000
32.3146	668.0000
32.3351	643.0000
32.3556	648.0000
32.3760	622.0000
32.3965	665.0000
32.4170	654.0000
32.4375	621.0000
32.4579	680.0000
32.4784	648.0000
32.4989	629.0000
32.5194	641.0000
32.5398	654.0000
32.5603	687.0000
32.5808	639.0000
32.6013	710.0000
32.6217	651.0000
32.6422	684.0000
32.6627	647.0000
32.6832	704.0000
32.7037	658.0000
32.7241	652.0000
32.7446	650.0000
32.7651	675.0000
32.7856	666.0000
32.8060	663.0000
32.8265	678.0000
32.8470	658.0000
32.8675	663.0000
32.8879	641.0000
32.9084	713.0000
32.9289	653.0000
32.9494	664.0000
32.9698	728.0000
32.9903	678.0000
33.0108	657.0000
33.0313	667.0000
33.0517	722.0000
33.0722	672.0000
33.0927	723.0000
33.1132	666.0000
33.1336	655.0000
33.1541	667.0000
33.1746	669.0000
33.1951	660.0000
33.2155	689.0000
33.2360	729.0000
33.2565	672.0000
33.2770	681.0000
33.2974	635.0000
33.3179	649.0000
33.3384	685.0000
33.3589	676.0000
33.3793	674.0000
33.3998	662.0000
33.4203	679.0000
33.4408	665.0000
33.4612	617.0000
33.4817	660.0000
33.5022	666.0000
33.5227	667.0000
33.5432	727.0000
33.5636	663.0000
33.5841	651.0000
33.6046	667.0000
33.6251	688.0000
33.6455	626.0000
33.6660	671.0000
33.6865	686.0000
33.7070	680.0000
33.7274	664.0000
33.7479	678.0000
33.7684	654.0000
33.7889	682.0000
33.8093	699.0000
33.8298	682.0000
33.8503	659.0000
33.8708	682.0000
33.8912	680.0000
33.9117	722.0000
33.9322	667.0000
33.9527	748.0000
33.9731	664.0000
33.9936	648.0000
34.0141	690.0000
34.0346	667.0000
34.0550	703.0000
34.0755	685.0000
34.0960	678.0000
34.1165	692.0000
34.1369	716.0000
34.1574	673.0000
34.1779	667.0000
34.1984	676.0000
34.2188	693.0000
34.2393	637.0000
34.2598	699.0000
34.2803	690.0000
34.3008	638.0000
34.3212	709.0000
34.3417	692.0000
34.3622	710.0000
34.3827	727.0000
34.4031	662.0000
34.4236	701.0000
34.4441	666.0000
34.4646	688.0000
34.4850	693.0000
34.5055	646.0000
34.5260	726.0000
34.5465	695.0000
34.5669	670.0000
34.5874	645.0000
34.6079	661.0000
34.6284	672.0000
34.6488	690.0000
34.6693	680.0000
34.6898	676.0000
34.7103	701.0000
34.7307	706.0000
34.7512	669.0000
34.7717	741.0000
34.7922	674.0000
34.8126	643.0000
34.8331	656.0000
34.8536	693.0000
34.8741	701.0000
34.8945	670.0000
34.9150	699.0000
34.9355	655.0000
34.9560	714.0000
34.9764	666.0000
34.9969	669.0000
35.0174	718.0000
35.0379	663.0000
35.0583	705.0000
35.0788	706.0000
35.0993	695.0000
35.1198	723.0000
35.1403	693.0000
35.1607	701.0000
35.1812	681.0000
35.2017	711.0000
35.2222	658.0000
35.2426	677.0000
35.2631	753.0000
35.2836	714.0000
35.3041	726.0000
35.3245	709.0000
35.3450	680.0000
35.3655	725.0000
35.3860	651.0000
35.4064	675.0000
35.4269	741.0000
35.4474	707.0000
35.4679	676.0000
35.4883	689.0000
35.5088	679.0000
35.5293	737.0000
35.5498	694.0000
35.5702	703.0000
35.5907	669.0000
35.6112	704.0000
35.6317	742.0000
35.6521	711.0000
35.6726	736.0000
35.6931	698.0000
35.7136	714.0000
35.7340	766.0000
35.7545	728.0000
35.7750	711.0000
35.7955	656.0000
35.8159	738.0000
35.8364	742.0000
35.8569	698.0000
35.8774	702.0000
35.8979	712.0000
35.9183	708.0000
35.9388	743.0000
35.9593	692.0000
35.9798	729.0000
36.0002	709.0000
36.0207	723.0000
36.0412	673.0000
36.0617	715.0000
36.0821	722.0000
36.1026	725.0000
36.1231	729.0000
36.1436	729.0000
36.1640	758.0000
36.1845	765.0000
36.2050	759.0000
36.2255	751.0000
36.2459	751.0000
36.2664	770.0000
36.2869	749.0000
36.3074	719.0000
36.3278	704.0000
36.3483	769.0000
36.3688	761.0000
36.3893	770.0000
36.4097	767.0000
36.4302	728.0000
36.4507	773.0000
36.4712	791.0000
36.4916	810.0000
36.5121	775.0000
36.5326	758.0000
36.5531	725.0000
36.5735	755.0000
36.5940	788.0000
36.6145	750.0000
36.6350	782.0000
36.6555	821.0000
36.6759	785.0000
36.6964	779.0000
36.7169	798.0000
36.7374	791.0000
36.7578	774.0000
36.7783	773.0000
36.7988	817.0000
36.8193	817.0000
36.8397	770.0000
36.8602	780.0000
36.8807	808.0000
36.9012	797.0000
36.9216	763.0000
36.9421	821.0000
36.9626	717.0000
36.9831	800.0000
37.0035	793.0000
37.0240	843.0000
37.0445	764.0000
37.0650	812.0000
37.0854	807.0000
37.1059	776.0000
37.1264	821.0000
37.1469	848.0000
37.1673	781.0000
37.1878	872.0000
37.2083	843.0000
37.2288	835.0000
37.2492	875.0000
37.2697	790.0000
37.2902	826.0000
37.3107	855.0000
37.3311	867.0000
37.3516	850.0000
37.3721	843.0000
37.3926	838.0000
37.4130	876.0000
37.4335	868.0000
37.4540	827.0000
37.4745	821.0000
37.4950	892.0000
37.5154	891.0000
37.5359	906.0000
37.5564	835.0000
37.5769	839.0000
37.5973	891.0000
37.6178	842.0000
37.6383	886.0000
37.6588	904.0000
37.6792	867.0000
37.6997	928.0000
37.7202	891.0000
37.7407	836.0000
37.7611	924.0000
37.7816	947.0000
37.8021	863.0000
37.8226	948.0000
37.8430	890.0000
37.8635	886.0000
37.8840	893.0000
37.9045	934.0000
37.9249	962.0000
37.9454	897.0000
37.9659	931.0000
37.9864	937.0000
38.0068	950.0000
38.0273	941.0000
38.0478	894.0000
38.0683	958.0000
38.0887	943.0000
38.1092	939.0000
38.1297	940.0000
38.1502	965.0000
38.1706	967.0000
38.1911	944.0000
38.2116	993.0000
38.2321	995.0000
38.2526	975.0000
38.2730	1017.0000
38.2935	988.0000
38.3140	1019.0000
38.3345	971.0000
38.3549	993.0000
38.3754	982.0000
38.3959	1052.0000
38.4164	1056.0000
38.4368	1021.0000
38.4573	1038.0000
38.4778	994.0000
38.4983	1037.0000
38.5187	1017.0000
38.5392	988.0000
38.5597	1101.0000
38.5802	1008.0000
38.6006	1077.0000
38.6211	1072.0000
38.6416	1062.0000
38.6621	1092.0000
38.6825	1137.0000
38.7030	1142.0000
38.7235	1128.0000
38.7440	1081.0000
38.7644	1151.0000
38.7849	1119.0000
38.8054	1136.0000
38.8259	1110.0000
38.8463	1201.0000
38.8668	1110.0000
38.8873	1151.0000
38.9078	1201.0000
38.9282	1194.0000
38.9487	1218.0000
38.9692	1198.0000
38.9897	1137.0000
39.0101	1234.0000
39.0306	1222.0000
39.0511	1227.0000
39.0716	1239.0000
39.0921	1239.0000
39.1125	1212.0000
39.1330	1261.0000
39.1535	1288.0000
39.1740	1290.0000
39.1944	1303.0000
39.2149	1284.0000
39.2354	1257.0000
39.2559	1233.0000
39.2763	1346.0000
39.2968	1309.0000
39.3173	1318.0000
39.3378	1323.0000
39.3582	1394.0000
39.3787	1403.0000
39.3992	1358.0000
39.4197	1321.0000
39.4401	1438.0000
39.4606	1430.0000
39.4811	1422.0000
39.5016	1461.0000
39.5220	1409.0000
39.5425	1458.0000
39.5630	1431.0000
39.5835	1492.0000
39.6039	1508.0000
39.6244	1497.0000
39.6449	1493.0000
39.6654	1549.0000
39.6858	1559.0000
39.7063	1581.0000
39.7268	1605.0000
39.7473	1564.0000
39.7677	1654.0000
39.7882	1605.0000
39.8087	1660.0000
39.8292	1678.0000
39.8497	1679.0000
39.8701	1645.0000
39.8906	1727.0000
39.9111	1752.0000
39.9316	1769.0000
39.9520	1705.0000
39.9725	1862.0000
39.9930	1824.0000
40.0135	1768.0000
40.0339	1800.0000
40.0544	1900.0000
40.0749	1781.0000
40.0954	1893.0000
40.1158	1882.0000
40.1363	2029.0000
40.1568	1964.0000
40.1773	1899.0000
40.1977	1961.0000
40.2182	2061.0000
40.2387	2000.0000
40.2592	2024.0000
40.2796	2016.0000
40.3001	2072.0000
40.3206	2160.0000
40.3411	2068.0000
40.3615	2162.0000
40.3820	2172.0000
40.4025	2206.0000
40.4230	2304.0000
40.4434	2164.0000
40.4639	2254.0000
40.4844	2273.0000
40.5049	2268.0000
40.5253	2367.0000
40.5458	2293.0000
40.5663	2350.0000
40.5868	2355.0000
40.6073	2399.0000
40.6277	2347.0000
40.6482	2538.0000
40.6687	2474.0000
40.6892	2534.0000
40.7096	2598.0000
40.7301	2589.0000
40.7506	2579.0000
40.7711	2555.0000
40.7915	2582.0000
40.8120	2752.0000
40.8325	2654.0000
40.8530	2637.0000
40.8734	2655.0000
40.8939	2745.0000
40.9144	2689.0000
40.9349	2766.0000
40.9553	2770.0000
40.9758	2801.0000
40.9963	2713.0000
41.0168	2748.0000
41.0372	2902.0000
41.0577	2759.0000
41.0782	2747.0000
41.0987	2837.0000
41.1191	2920.0000
41.1396	2871.0000
41.1601	2734.0000
41.1806	2894.0000
41.2010	2884.0000
41.2215	2815.0000
41.2420	2857.0000
41.2625	2800.0000
41.2829	2823.0000
41.3034	2757.0000
41.3239	2787.0000
41.3444	2646.0000
41.3648	2789.0000
41.3853	2792.0000
41.4058	2624.0000
41.4263	2616.0000
41.4468	2643.0000
41.4672	2559.0000
41.4877	2556.0000
41.5082	2591.0000
41.5287	2508.0000
41.5491	2430.0000
41.5696	2460.0000
41.5901	2368.0000
41.6106	2368.0000
41.6310	2332.0000
41.6515	2268.0000
41.6720	2227.0000
41.6925	2120.0000
41.7129	2095.0000
41.7334	2083.0000
41.7539	1948.0000
41.7744	1948.0000
41.7948	1856.0000
41.8153	1932.0000
41.8358	1842.0000
41.8563	1860.0000
41.8767	1775.0000
41.8972	1704.0000
41.9177	1678.0000
41.9382	1680.0000
41.9586	1646.0000
41.9791	1714.0000
41.9996	1532.0000
42.0201	1451.0000
42.0405	1525.0000
42.0610	1503.0000
42.0815	1439.0000
42.1020	1445.0000
42.1224	1373.0000
42.1429	1416.0000
42.1634	1339.0000
42.1839	1266.0000
42.2044	1357.0000
42.2248	1316.0000
42.2453	1258.0000
42.2658	1281.0000
42.2863	1240.0000
42.3067	1206.0000
42.3272	1160.0000
42.3477	1210.0000
42.3682	1156.0000
42.3886	1158.0000
42.4091	1123.0000
42.4296	1176.0000
42.4501	1145.0000
42.4705	1136.0000
42.4910	1094.0000
42.5115	1096.0000
42.5320	1110.0000
42.5524	1078.0000
42.5729	1059.0000
42.5934	1038.0000
42.6139	1060.0000
42.6343	1085.0000
42.6548	998.0000
42.6753	1066.0000
42.6958	970.0000
42.7162	963.0000
42.7367	1081.0000
42.7572	955.0000
42.7777	963.0000
42.7981	939.0000
42.8186	996.0000
42.8391	967.0000
42.8596	954.0000
42.8800	932.0000
42.9005	912.0000
42.9210	913.0000
42.9415	938.0000
42.9619	917.0000
42.9824	903.0000
43.0029	947.0000
43.0234	877.0000
43.0439	948.0000
43.0643	919.0000
43.0848	861.0000
43.1053	871.0000
43.1258	960.0000
43.1462	858.0000
43.1667	885.0000
43.1872	895.0000
43.2077	852.0000
43.2281	928.0000
43.2486	902.0000
43.2691	865.0000
43.2896	884.0000
43.3100	841.0000
43.3305	863.0000
43.3510	888.0000
43.3715	887.0000
43.3919	841.0000
43.4124	849.0000
43.4329	814.0000
43.4534	835.0000
43.4738	808.0000
43.4943	791.0000
43.5148	851.0000
43.5353	868.0000
43.5557	810.0000
43.5762	850.0000
43.5967	806.0000
43.6172	816.0000
43.6376	785.0000
43.6581	854.0000
43.6786	800.0000
43.6991	855.0000
43.7195	813.0000
43.7400	850.0000
43.7605	895.0000
43.7810	841.0000
43.8015	844.0000
43.8219	790.0000
43.8424	827.0000
43.8629	824.0000
43.8834	789.0000
43.9038	889.0000
43.9243	797.0000
43.9448	792.0000
43.9653	779.0000
43.9857	797.0000
44.0062	778.0000
44.0267	793.0000
44.0472	806.0000
44.0676	757.0000
44.0881	770.0000
44.1086	814.0000
44.1291	771.0000
44.1495	742.0000
44.1700	836.0000
44.1905	764.0000
44.2110	806.0000
44.2314	782.0000
44.2519	787.0000
44.2724	778.0000
44.2929	785.0000
44.3133	764.0000
44.3338	839.0000
44.3543	799.0000
44.3748	768.0000
44.3952	776.0000
44.4157	757.0000
44.4362	781.0000
44.4567	816.0000
44.4771	821.0000
44.4976	748.0000
44.5181	740.0000
44.5386	781.0000
44.5591	772.0000
44.5795	799.0000
44.6000	825.0000
44.6205	797.0000
44.6410	751.0000
44.6614	762.0000
44.6819	771.0000
44.7024	803.0000
44.7229	748.0000
44.7433	782.0000
44.7638	785.0000
44.7843	815.0000
44.8048	844.0000
44.8252	795.0000
44.8457	775.0000
44.8662	837.0000
44.8867	792.0000
44.9071	764.0000
44.9276	784.0000
44.9481	778.0000
44.9686	821.0000
44.9890	738.0000
45.0095	797.0000
45.0300	773.0000
45.0505	784.0000
45.0709	842.0000
45.0914	805.0000
45.1119	743.0000
45.1324	805.0000
45.1528	827.0000
45.1733	816.0000
45.1938	832.0000
45.2143	834.0000
45.2347	852.0000
45.2552	826.0000
45.2757	759.0000
45.2962	861.0000
45.3166	837.0000
45.3371	854.0000
45.3576	788.0000
45.3781	829.0000
45.3986	880.0000
45.4190	836.0000
45.4395	804.0000
45.4600	916.0000
45.4805	846.0000
45.5009	811.0000
45.5214	804.0000
45.5419	892.0000
45.5624	860.0000
45.5828	784.0000
45.6033	858.0000
45.6238	890.0000
45.6443	870.0000
45.6647	919.0000
45.6852	827.0000
45.7057	823.0000
45.7262	836.0000
45.7466	873.0000
45.7671	895.0000
45.7876	915.0000
45.8081	907.0000
45.8285	894.0000
45.8490	925.0000
45.8695	930.0000
45.8900	882.0000
45.9104	887.0000
45.9309	956.0000
45.9514	998.0000
45.9719	952.0000
45.9923	947.0000
46.0128	891.0000
46.0333	875.0000
46.0538	885.0000
46.0742	953.0000
46.0947	934.0000
46.1152	1000.0000
46.1357	1022.0000
46.1562	984.0000
46.1766	935.0000
46.1971	940.0000
46.2176	988.0000
46.2381	985.0000
46.2585	976.0000
46.2790	1008.0000
46.2995	984.0000
46.3200	994.0000
46.3404	1005.0000
46.3609	1002.0000
46.3814	1020.0000
46.4019	1051.0000
46.4223	1055.0000
46.4428	1027.0000
46.4633	1023.0000
46.4838	1087.0000
46.5042	1122.0000
46.5247	1076.0000
46.5452	1056.0000
46.5657	1088.0000
46.5861	1144.0000
46.6066	1100.0000
46.6271	1060.0000
46.6476	1110.0000
46.6680	1065.0000
46.6885	1096.0000
46.7090	1120.0000
46.7295	1123.0000
46.7499	1141.0000
46.7704	1156.0000
46.7909	1131.0000
46.8114	1171.0000
46.8318	1169.0000
46.8523	1185.0000
46.8728	1150.0000
46.8933	1110.0000
46.9137	1155.0000
46.9342	1197.0000
46.9547	1209.0000
46.9752	1195.0000
46.9957	1218.0000
47.0161	1190.0000
47.0366	1230.0000
47.0571	1180.0000
47.0776	1252.0000
47.0980	1228.0000
47.1185	1201.0000
47.1390	1223.0000
47.1595	1187.0000
47.1799	1250.0000
47.2004	1284.0000
47.2209	1240.0000
47.2414	1278.0000
47.2618	1286.0000
47.2823	1294.0000
47.3028	1261.0000
47.3233	1356.0000
47.3437	1303.0000
47.3642	1282.0000
47.3847	1334.0000
47.4052	1307.0000
47.4256	1321.0000
47.4461	1298.0000
47.4666	1364.0000
47.4871	1366.0000
47.5075	1350.0000
47.5280	1266.0000
47.5485	1357.0000
47.5690	1335.0000
47.5894	1347.0000
47.6099	1347.0000
47.6304	1323.0000
47.6509	1349.0000
47.6713	1313.0000
47.6918	1309.0000
47.7123	1347.0000
47.7328	1289.0000
47.7533	1385.0000
47.7737	1357.0000
47.7942	1388.0000
47.8147	1365.0000
47.8352	1340.0000
47.8556	1292.0000
47.8761	1281.0000
47.8966	1349.0000
47.9171	1297.0000
47.9375	1266.0000
47.9580	1281.0000
47.9785	1323.0000
47.9990	1261.0000
48.0194	1247.0000
48.0399	1247.0000
48.0604	1255.0000
48.0809	1257.0000
48.1013	1249.0000
48.1218	1266.0000
48.1423	1185.0000
48.1628	1221.0000
48.1832	1198.0000
48.2037	1173.0000
48.2242	1227.0000
48.2447	1152.0000
48.2651	1153.0000
48.2856	1164.0000
48.3061	1135.0000
48.3266	1136.0000
48.3470	1180.0000
48.3675	1054.0000
48.3880	1137.0000
48.4085	1098.0000
48.4289	1041.0000
48.4494	1117.0000
48.4699	1036.0000
48.4904	1061.0000
48.5109	943.0000
48.5313	970.0000
48.5518	1014.0000
48.5723	949.0000
48.5928	1015.0000
48.6132	997.0000
48.6337	990.0000
48.6542	993.0000
48.6747	932.0000
48.6951	910.0000
48.7156	919.0000
48.7361	883.0000
48.7566	918.0000
48.7770	884.0000
48.7975	877.0000
48.8180	852.0000
48.8385	909.0000
48.8589	896.0000
48.8794	924.0000
48.8999	867.0000
48.9204	868.0000
48.9408	850.0000
48.9613	818.0000
48.9818	856.0000
49.0023	874.0000
49.0227	820.0000
49.0432	821.0000
49.0637	813.0000
49.0842	833.0000
49.1046	786.0000
49.1251	836.0000
49.1456	813.0000
49.1661	776.0000
49.1865	751.0000
49.2070	739.0000
49.2275	730.0000
49.2480	746.0000
49.2684	759.0000
49.2889	783.0000
49.3094	715.0000
49.3299	742.0000
49.3504	733.0000
49.3708	725.0000
49.3913	750.0000
49.4118	719.0000
49.4323	720.0000
49.4527	712.0000
49.4732	695.0000
49.4937	718.0000
49.5142	667.0000
49.5346	705.0000
49.5551	711.0000
49.5756	720.0000
49.5961	738.0000
49.6165	661.0000
49.6370	713.0000
49.6575	674.0000
49.6780	697.0000
49.6984	698.0000
49.7189	706.0000
49.7394	667.0000
49.7599	685.0000
49.7803	680.0000
49.8008	669.0000
49.8213	647.0000
49.8418	649.0000
49.8622	635.0000
49.8827	643.0000
49.9032	665.0000
49.9237	633.0000
49.9441	658.0000
49.9646	600.0000
49.9851	636.0000
50.0056	627.0000
50.0260	638.0000
50.0465	644.0000
50.0670	656.0000
50.0875	626.0000
50.1080	633.0000
50.1284	626.0000
50.1489	574.0000
50.1694	605.0000
50.1899	697.0000
50.2103	657.0000
50.2308	648.0000
50.2513	615.0000
50.2718	636.0000
50.2922	608.0000
50.3127	612.0000
50.3332	566.0000
50.3537	557.0000
50.3741	631.0000
50.3946	632.0000
50.4151	598.0000
50.4356	611.0000
50.4560	625.0000
50.4765	570.0000
50.4970	649.0000
50.5175	596.0000
50.5379	593.0000
50.5584	624.0000
50.5789	560.0000
50.5994	620.0000
50.6198	558.0000
50.6403	589.0000
50.6608	569.0000
50.6813	580.0000
50.7017	594.0000
50.7222	590.0000
50.7427	574.0000
50.7632	601.0000
50.7836	557.0000
50.8041	575.0000
50.8246	576.0000
50.8451	606.0000
50.8655	601.0000
50.8860	550.0000
50.9065	557.0000
50.9270	566.0000
50.9475	532.0000
50.9679	555.0000
50.9884	578.0000
51.0089	592.0000
51.0294	569.0000
51.0498	530.0000
51.0703	612.0000
51.0908	587.0000
51.1113	566.0000
51.1317	557.0000
51.1522	586.0000
51.1727	554.0000
51.1932	562.0000
51.2136	551.0000
51.2341	523.0000
51.2546	535.0000
51.2751	553.0000
51.2955	581.0000
51.3160	566.0000
51.3365	563.0000
51.3570	529.0000
51.3774	567.0000
51.3979	550.0000
51.4184	535.0000
51.4389	512.0000
51.4593	570.0000
51.4798	559.0000
51.5003	605.0000
51.5208	557.0000
51.5412	540.0000
51.5617	588.0000
51.5822	530.0000
51.6027	586.0000
51.6231	579.0000
51.6436	606.0000
51.6641	527.0000
51.6846	538.0000
51.7051	569.0000
51.7255	566.0000
51.7460	541.0000
51.7665	549.0000
51.7870	572.0000
51.8074	527.0000
51.8279	537.0000
51.8484	539.0000
51.8689	624.0000
51.8893	519.0000
51.9098	566.0000
51.9303	543.0000
51.9508	552.0000
51.9712	532.0000
51.9917	569.0000
52.0122	577.0000
52.0327	512.0000
52.0531	536.0000
52.0736	583.0000
52.0941	547.0000
52.1146	560.0000
52.1350	518.0000
52.1555	526.0000
52.1760	565.0000
52.1965	577.0000
52.2169	523.0000
52.2374	531.0000
52.2579	551.0000
52.2784	542.0000
52.2988	562.0000
52.3193	553.0000
52.3398	503.0000
52.3603	520.0000
52.3807	527.0000
52.4012	518.0000
52.4217	488.0000
52.4422	525.0000
52.4626	539.0000
52.4831	526.0000
52.5036	541.0000
52.5241	568.0000
52.5446	531.0000
52.5650	541.0000
52.5855	570.0000
52.6060	550.0000
52.6265	520.0000
52.6469	526.0000
52.6674	557.0000
52.6879	553.0000
52.7084	541.0000
52.7288	606.0000
52.7493	501.0000
52.7698	527.0000
52.7903	543.0000
52.8107	568.0000
52.8312	551.0000
52.8517	596.0000
52.8722	508.0000
52.8926	529.0000
52.9131	519.0000
52.9336	500.0000
52.9541	528.0000
52.9745	539.0000
52.9950	519.0000
53.0155	537.0000
53.0360	520.0000
53.0564	553.0000
53.0769	578.0000
53.0974	501.0000
53.1179	508.0000
53.1383	516.0000
53.1588	567.0000
53.1793	500.0000
53.1998	527.0000
53.2202	521.0000
53.2407	540.0000
53.2612	549.0000
53.2817	524.0000
53.3022	521.0000
53.3226	519.0000
53.3431	528.0000
53.3636	537.0000
53.3841	556.0000
53.4045	576.0000
53.4250	509.0000
53.4455	565.0000
53.4660	592.0000
53.4864	527.0000
53.5069	515.0000
53.5274	520.0000
53.5479	591.0000
53.5683	558.0000
53.5888	544.0000
53.6093	558.0000
53.6298	559.0000
53.6502	517.0000
53.6707	548.0000
53.6912	550.0000
53.7117	501.0000
53.7321	529.0000
53.7526	578.0000
53.7731	564.0000
53.7936	530.0000
53.8140	518.0000
53.8345	522.0000
53.8550	550.0000
53.8755	539.0000
53.8959	541.0000
53.9164	534.0000
53.9369	560.0000
53.9574	528.0000
53.9778	535.0000
53.9983	486.0000
54.0188	532.0000
54.0393	539.0000
54.0598	560.0000
54.0802	533.0000
54.1007	566.0000
54.1212	539.0000
54.1417	528.0000
54.1621	535.0000
54.1826	492.0000
54.2031	557.0000
54.2236	529.0000
54.2440	537.0000
54.2645	476.0000
54.2850	540.0000
54.3055	508.0000
54.3259	512.0000
54.3464	503.0000
54.3669	539.0000
54.3874	533.0000
54.4078	492.0000
54.4283	540.0000
54.4488	482.0000
54.4693	526.0000
54.4897	517.0000
54.5102	539.0000
54.5307	510.0000
54.5512	525.0000
54.5716	565.0000
54.5921	507.0000
54.6126	532.0000
54.6331	493.0000
54.6535	516.0000
54.6740	565.0000
54.6945	523.0000
54.7150	551.0000
54.7354	490.0000
54.7559	503.0000
54.7764	522.0000
54.7969	504.0000
54.8173	549.0000
54.8378	504.0000
54.8583	527.0000
54.8788	540.0000
54.8993	520.0000
54.9197	513.0000
54.9402	496.0000
54.9607	556.0000
54.9812	499.0000
55.0016	493.0000
55.0221	512.0000
55.0426	482.0000
55.0631	556.0000
55.0835	542.0000
55.1040	489.0000
55.1245	491.0000
55.1450	506.0000
55.1654	551.0000
55.1859	505.0000
55.2064	506.0000
55.2269	508.0000
55.2473	505.0000
55.2678	486.0000
55.2883	501.0000
55.3088	538.0000
55.3292	519.0000
55.3497	494.0000
55.3702	503.0000
55.3907	495.0000
55.4111	510.0000
55.4316	524.0000
55.4521	497.0000
55.4726	531.0000
55.4930	507.0000
55.5135	504.0000
55.5340	506.0000
55.5545	498.0000
55.5749	531.0000
55.5954	545.0000
55.6159	511.0000
55.6364	471.0000
55.6569	535.0000
55.6773	536.0000
55.6978	516.0000
55.7183	504.0000
55.7388	484.0000
55.7592	508.0000
55.7797	498.0000
55.8002	520.0000
55.8207	496.0000
55.8411	525.0000
55.8616	533.0000
55.8821	469.0000
55.9026	483.0000
55.9230	497.0000
55.9435	483.0000
55.9640	508.0000
55.9845	539.0000
56.0049	524.0000
56.0254	521.0000
56.0459	508.0000
56.0664	519.0000
56.0868	475.0000
56.1073	514.0000
56.1278	457.0000
56.1483	523.0000
56.1687	528.0000
56.1892	529.0000
56.2097	535.0000
56.2302	501.0000
56.2506	497.0000
56.2711	488.0000
56.2916	472.0000
56.3121	536.0000
56.3325	530.0000
56.3530	497.0000
56.3735	485.0000
56.3940	524.0000
56.4144	494.0000
56.4349	487.0000
56.4554	474.0000
56.4759	478.0000
56.4964	535.0000
56.5168	503.0000
56.5373	483.0000
56.5578	494.0000
56.5783	478.0000
56.5987	495.0000
56.6192	506.0000
56.6397	502.0000
56.6602	503.0000
56.6806	524.0000
56.7011	474.0000
56.7216	515.0000
56.7421	509.0000
56.7625	494.0000
56.7830	487.0000
56.8035	534.0000
56.8240	476.0000
56.8444	494.0000
56.8649	494.0000
56.8854	522.0000
56.9059	503.0000
56.9263	495.0000
56.9468	485.0000
56.9673	495.0000
56.9878	493.0000
57.0082	527.0000
57.0287	517.0000
57.0492	481.0000
57.0697	484.0000
57.0901	491.0000
57.1106	526.0000
57.1311	535.0000
57.1516	532.0000
57.1720	491.0000
57.1925	492.0000
57.2130	495.0000
57.2335	492.0000
57.2540	500.0000
57.2744	554.0000
57.2949	511.0000
57.3154	542.0000
57.3359	521.0000
57.3563	508.0000
57.3768	519.0000
57.3973	497.0000
57.4178	460.0000
57.4382	530.0000
57.4587	489.0000
57.4792	518.0000
57.4997	460.0000
57.5201	483.0000
57.5406	556.0000
57.5611	500.0000
57.5816	471.0000
57.6020	523.0000
57.6225	520.0000
57.6430	532.0000
57.6635	523.0000
57.6839	496.0000
57.7044	482.0000
57.7249	490.0000
57.7454	501.0000
57.7658	489.0000
57.7863	484.0000
57.8068	483.0000
57.8273	490.0000
57.8477	477.0000
57.8682	504.0000
57.8887	525.0000
57.9092	509.0000
57.9296	530.0000
57.9501	494.0000
57.9706	491.0000
57.9911	487.0000
58.0116	482.0000
58.0320	535.0000
58.0525	489.0000
58.0730	497.0000
58.0935	496.0000
58.1139	496.0000
58.1344	448.0000
58.1549	468.0000
58.1754	526.0000
58.1958	476.0000
58.2163	461.0000
58.2368	498.0000
58.2573	485.0000
58.2777	514.0000
58.2982	492.0000
58.3187	515.0000
58.3392	523.0000
58.3596	475.0000
58.3801	514.0000
58.4006	503.0000
58.4211	440.0000
58.4415	460.0000
58.4620	473.0000
58.4825	489.0000
58.5030	480.0000
58.5234	512.0000
58.5439	527.0000
58.5644	515.0000
58.5849	494.0000
58.6053	495.0000
58.6258	467.0000
58.6463	518.0000
58.6668	472.0000
58.6872	533.0000
58.7077	490.0000
58.7282	518.0000
58.7487	458.0000
58.7691	496.0000
58.7896	471.0000
58.8101	518.0000
58.8306	511.0000
58.8511	484.0000
58.8715	542.0000
58.8920	505.0000
58.9125	497.0000
58.9330	475.0000
58.9534	472.0000
58.9739	489.0000
58.9944	524.0000
59.0149	472.0000
59.0353	480.0000
59.0558	500.0000
59.0763	480.0000
59.0968	503.0000
59.1172	489.0000
59.1377	500.0000
59.1582	510.0000
59.1787	450.0000
59.1991	510.0000
59.2196	501.0000
59.2401	453.0000
59.2606	492.0000
59.2810	467.0000
59.3015	455.0000
59.3220	503.0000
59.3425	535.0000
59.3629	446.0000
59.3834	493.0000
59.4039	465.0000
59.4244	456.0000
59.4448	509.0000
59.4653	468.0000
59.4858	539.0000
59.5063	508.0000
59.5267	498.0000
59.5472	502.0000
59.5677	535.0000
59.5882	509.0000
59.6087	500.0000
59.6291	464.0000
59.6496	484.0000
59.6701	457.0000
59.6906	426.0000
59.7110	503.0000
59.7315	468.0000
59.7520	492.0000
59.7725	494.0000
59.7929	467.0000
59.8134	511.0000
59.8339	494.0000
59.8544	505.0000
59.8748	485.0000
59.8953	571.0000
59.9158	523.0000
59.9363	475.0000
59.9567	462.0000
59.9772	466.0000
59.9977	480.0000
60.0182	511.0000
60.0386	499.0000
60.0591	514.0000
60.0796	531.0000
60.1001	513.0000
60.1205	481.0000
60.1410	490.0000
60.1615	509.0000
60.1820	493.0000
60.2024	481.0000
60.2229	468.0000
60.2434	490.0000
60.2639	475.0000
60.2843	486.0000
60.3048	464.0000
60.3253	509.0000
60.3458	467.0000
60.3662	490.0000
60.3867	524.0000
60.4072	496.0000
60.4277	469.0000
60.4482	503.0000
60.4686	484.0000
60.4891	489.0000
60.5096	529.0000
60.5301	491.0000
60.5505	454.0000
60.5710	461.0000
60.5915	503.0000
60.6120	497.0000
60.6324	509.0000
60.6529	515.0000
60.6734	567.0000
60.6939	512.0000
60.7143	520.0000
60.7348	515.0000
60.7553	485.0000
60.7758	479.0000
60.7962	489.0000
60.8167	507.0000
60.8372	491.0000
60.8577	477.0000
60.8781	470.0000
60.8986	503.0000
60.9191	517.0000
60.9396	548.0000
60.9600	538.0000
60.9805	488.0000
61.0010	529.0000
61.0215	501.0000
61.0419	511.0000
61.0624	499.0000
61.0829	540.0000
61.1034	475.0000
61.1238	470.0000
61.1443	508.0000
61.1648	539.0000
61.1853	524.0000
61.2058	484.0000
61.2262	518.0000
61.2467	505.0000
61.2672	490.0000
61.2877	505.0000
61.3081	425.0000
61.3286	502.0000
61.3491	490.0000
61.3696	507.0000
61.3900	514.0000
61.4105	485.0000
61.4310	482.0000
61.4515	534.0000
61.4719	497.0000
61.4924	511.0000
61.5129	501.0000
61.5334	505.0000
61.5538	510.0000
61.5743	487.0000
61.5948	486.0000
61.6153	535.0000
61.6357	520.0000
61.6562	510.0000
61.6767	505.0000
61.6972	463.0000
61.7176	460.0000
61.7381	485.0000
61.7586	529.0000
61.7791	465.0000
61.7995	491.0000
61.8200	520.0000
61.8405	467.0000
61.8610	495.0000
61.8814	483.0000
61.9019	494.0000
61.9224	483.0000
61.9429	439.0000
61.9634	461.0000
61.9838	487.0000
62.0043	499.0000
62.0248	513.0000
62.0453	489.0000
62.0657	507.0000
62.0862	525.0000
62.1067	495.0000
62.1272	476.0000
62.1476	498.0000
62.1681	480.0000
62.1886	465.0000
62.2091	467.0000
62.2295	522.0000
62.2500	469.0000
62.2705	499.0000
62.2910	529.0000
62.3114	470.0000
62.3319	494.0000
62.3524	503.0000
62.3729	514.0000
62.3933	501.0000
62.4138	481.0000
62.4343	486.0000
62.4548	531.0000
62.4752	479.0000
62.4957	476.0000
62.5162	475.0000
62.5367	508.0000
62.5571	486.0000
62.5776	485.0000
62.5981	511.0000
62.6186	506.0000
62.6390	548.0000
62.6595	479.0000
62.6800	499.0000
62.7005	470.0000
62.7209	482.0000
62.7414	494.0000
62.7619	498.0000
62.7824	466.0000
62.8029	506.0000
62.8233	500.0000
62.8438	485.0000
62.8643	492.0000
62.8848	445.0000
62.9052	535.0000
62.9257	487.0000
62.9462	490.0000
62.9667	523.0000
62.9871	521.0000
63.0076	491.0000
63.0281	485.0000
63.0486	492.0000
63.0690	485.0000
63.0895	528.0000
63.1100	505.0000
63.1305	485.0000
63.1509	500.0000
63.1714	495.0000
63.1919	536.0000
63.2124	493.0000
63.2328	497.0000
63.2533	474.0000
63.2738	442.0000
63.2943	495.0000
63.3147	503.0000
63.3352	492.0000
63.3557	469.0000
63.3762	545.0000
63.3966	473.0000
63.4171	510.0000
63.4376	483.0000
63.4581	524.0000
63.4785	489.0000
63.4990	474.0000
63.5195	459.0000
63.5400	447.0000
63.5605	460.0000
63.5809	516.0000
63.6014	470.0000
63.6219	518.0000
63.6424	487.0000
63.6628	488.0000
63.6833	491.0000
63.7038	501.0000
63.7243	497.0000
63.7447	508.0000
63.7652	530.0000
63.7857	484.0000
63.8062	485.0000
63.8266	482.0000
63.8471	489.0000
63.8676	517.0000
63.8881	508.0000
63.9085	491.0000
63.9290	449.0000
63.9495	480.0000
63.9700	513.0000
63.9904	477.0000
64.0109	513.0000
64.0314	478.0000
64.0519	532.0000
64.0723	535.0000
64.0928	501.0000
64.1133	488.0000
64.1338	490.0000
64.1542	446.0000
64.1747	458.0000
64.1952	501.0000
64.2157	494.0000
64.2361	512.0000
64.2566	506.0000
64.2771	516.0000
64.2976	471.0000
64.3180	509.0000
64.3385	509.0000
64.3590	500.0000
64.3795	498.0000
64.4000	487.0000
64.4204	515.0000
64.4409	501.0000
64.4614	503.0000
64.4819	475.0000
64.5023	493.0000
64.5228	540.0000
64.5433	519.0000
64.5638	505.0000
64.5842	520.0000
64.6047	487.0000
64.6252	498.0000
64.6457	487.0000
64.6661	482.0000
64.6866	529.0000
64.7071	503.0000
64.7276	556.0000
64.7480	515.0000
64.7685	497.0000
64.7890	503.0000
64.8095	514.0000
64.8299	532.0000
64.8504	484.0000
64.8709	505.0000
64.8914	509.0000
64.9118	487.0000
64.9323	503.0000
64.9528	524.0000
64.9733	508.0000
64.9937	511.0000
65.0142	542.0000
65.0347	526.0000
65.0552	519.0000
65.0756	531.0000
65.0961	508.0000
65.1166	503.0000
65.1371	515.0000
65.1576	499.0000
65.1780	495.0000
65.1985	483.0000
65.2190	491.0000
65.2395	481.0000
65.2599	554.0000
65.2804	522.0000
65.3009	533.0000
65.3214	510.0000
65.3418	515.0000
65.3623	544.0000
65.3828	481.0000
65.4033	499.0000
65.4237	534.0000
65.4442	486.0000
65.4647	512.0000
65.4852	529.0000
65.5056	508.0000
65.5261	508.0000
65.5466	518.0000
65.5671	531.0000
65.5875	497.0000
65.6080	529.0000
65.6285	494.0000
65.6490	525.0000
65.6694	498.0000
65.6899	556.0000
65.7104	507.0000
65.7309	483.0000
65.7513	567.0000
65.7718	481.0000
65.7923	523.0000
65.8128	496.0000
65.8332	515.0000
65.8537	500.0000
65.8742	542.0000
65.8947	562.0000
65.9152	513.0000
65.9356	538.0000
65.9561	554.0000
65.9766	558.0000
65.9971	557.0000
66.0175	549.0000
66.0380	558.0000
66.0585	545.0000
66.0790	561.0000
66.0994	517.0000
66.1199	494.0000
66.1404	542.0000
66.1609	552.0000
66.1813	573.0000
66.2018	536.0000
66.2223	522.0000
66.2428	530.0000
66.2632	516.0000
66.2837	544.0000
66.3042	544.0000
66.3247	533.0000
66.3451	521.0000
66.3656	563.0000
66.3861	523.0000
66.4066	552.0000
66.4270	532.0000
66.4475	563.0000
66.4680	563.0000
66.4885	554.0000
66.5089	566.0000
66.5294	553.0000
66.5499	571.0000
66.5704	546.0000
66.5908	547.0000
66.6113	542.0000
66.6318	569.0000
66.6523	541.0000
66.6727	559.0000
66.6932	555.0000
66.7137	601.0000
66.7342	521.0000
66.7547	545.0000
66.7751	556.0000
66.7956	560.0000
66.8161	543.0000
66.8366	601.0000
66.8570	565.0000
66.8775	568.0000
66.8980	580.0000
66.9185	546.0000
66.9389	576.0000
66.9594	614.0000
66.9799	539.0000
67.0004	614.0000
67.0208	579.0000
67.0413	595.0000
67.0618	572.0000
67.0823	604.0000
67.1027	565.0000
67.1232	569.0000
67.1437	575.0000
67.1642	538.0000
67.1846	602.0000
67.2051	616.0000
67.2256	592.0000
67.2461	612.0000
67.2665	622.0000
67.2870	594.0000
67.3075	624.0000
67.3280	566.0000
67.3484	593.0000
67.3689	577.0000
67.3894	585.0000
67.4099	650.0000
67.4303	606.0000
67.4508	616.0000
67.4713	603.0000
67.4918	626.0000
67.5123	614.0000
67.5327	576.0000
67.5532	629.0000
67.5737	625.0000
67.5942	630.0000
67.6146	614.0000
67.6351	606.0000
67.6556	654.0000
67.6761	626.0000
67.6965	592.0000
67.7170	619.0000
67.7375	584.0000
67.7580	631.0000
67.7784	606.0000
67.7989	644.0000
67.8194	629.0000
67.8399	642.0000
67.8603	647.0000
67.8808	668.0000
67.9013	615.0000
67.9218	624.0000
67.9422	636.0000
67.9627	650.0000
67.9832	661.0000
68.0037	677.0000
68.0241	676.0000
68.0446	707.0000
68.0651	666.0000
68.0856	625.0000
68.1060	668.0000
68.1265	637.0000
68.1470	650.0000
68.1675	696.0000
68.1879	645.0000
68.2084	685.0000
68.2289	643.0000
68.2494	658.0000
68.2698	696.0000
68.2903	657.0000
68.3108	686.0000
68.3313	616.0000
68.3518	649.0000
68.3722	705.0000
68.3927	703.0000
68.4132	665.0000
68.4337	704.0000
68.4541	719.0000
68.4746	697.0000
68.4951	706.0000
68.5156	686.0000
68.5360	687.0000
68.5565	732.0000
68.5770	735.0000
68.5975	722.0000
68.6179	737.0000
68.6384	680.0000
68.6589	659.0000
68.6794	779.0000
68.6998	707.0000
68.7203	743.0000
68.7408	730.0000
68.7613	699.0000
68.7817	744.0000
68.8022	702.0000
68.8227	755.0000
68.8432	727.0000
68.8636	775.0000
68.8841	735.0000
68.9046	698.0000
68.9251	734.0000
68.9455	774.0000
68.9660	742.0000
68.9865	723.0000
69.0070	741.0000
69.0274	762.0000
69.0479	760.0000
69.0684	766.0000
69.0889	765.0000
69.1094	786.0000
69.1298	723.0000
69.1503	757.0000
69.1708	740.0000
69.1913	742.0000
69.2117	742.0000
69.2322	753.0000
69.2527	748.0000
69.2732	760.0000
69.2936	757.0000
69.3141	791.0000
69.3346	753.0000
69.3551	740.0000
69.3755	825.0000
69.3960	777.0000
69.4165	756.0000
69.4370	785.0000
69.4574	760.0000
69.4779	698.0000
69.4984	731.0000
69.5189	762.0000
69.5393	743.0000
69.5598	803.0000
69.5803	810.0000
69.6008	813.0000
69.6212	773.0000
69.6417	770.0000
69.6622	816.0000
69.6827	767.0000
69.7031	752.0000
69.7236	724.0000
69.7441	764.0000
69.7646	776.0000
69.7850	828.0000
69.8055	800.0000
69.8260	808.0000
69.8465	796.0000
69.8670	786.0000
69.8874	846.0000
69.9079	733.0000
69.9284	780.0000
69.9489	806.0000
69.9693	812.0000
69.9898	837.0000
70.0103	779.0000
70.0308	735.0000
70.0512	764.0000
70.0717	795.0000
70.0922	768.0000
70.1127	850.0000
70.1331	798.0000
70.1536	774.0000
70.1741	841.0000
70.1946	754.0000
70.2150	758.0000
70.2355	775.0000
70.2560	797.0000
70.2765	778.0000
70.2969	733.0000
70.3174	799.0000
70.3379	762.0000
70.3584	729.0000
70.3788	771.0000
70.3993	738.0000
70.4198	721.0000
70.4403	774.0000
70.4607	785.0000
70.4812	717.0000
70.5017	767.0000
70.5222	752.0000
70.5426	752.0000
70.5631	778.0000
70.5836	688.0000
70.6041	769.0000
70.6245	765.0000
70.6450	736.0000
70.6655	696.0000
70.6860	691.0000
70.7065	686.0000
70.7269	678.0000
70.7474	633.0000
70.7679	665.0000
70.7884	685.0000
70.8088	647.0000
70.8293	663.0000
70.8498	665.0000
70.8703	706.0000
70.8907	639.0000
70.9112	704.0000
70.9317	701.0000
70.9522	669.0000
70.9726	661.0000
70.9931	679.0000
71.0136	680.0000
71.0341	706.0000
71.0545	683.0000
71.0750	662.0000
71.0955	696.0000
71.1160	617.0000
71.1364	677.0000
71.1569	590.0000
71.1774	647.0000
71.1979	644.0000
71.2183	683.0000
71.2388	633.0000
71.2593	628.0000
71.2798	579.0000
71.3002	582.0000
71.3207	615.0000
71.3412	595.0000
71.3617	564.0000
71.3821	567.0000
71.4026	628.0000
71.4231	556.0000
71.4436	617.0000
71.4641	573.0000
71.4845	601.0000
71.5050	631.0000
71.5255	628.0000
71.5460	578.0000
71.5664	549.0000
71.5869	592.0000
71.6074	592.0000
71.6279	564.0000
71.6483	562.0000
71.6688	570.0000
71.6893	546.0000
71.7098	558.0000
71.7302	554.0000
71.7507	551.0000
71.7712	529.0000
71.7917	527.0000
71.8121	569.0000
71.8326	540.0000
71.8531	558.0000
71.8736	532.0000
71.8940	524.0000
71.9145	486.0000
71.9350	491.0000
71.9555	521.0000
71.9759	516.0000
71.9964	504.0000
72.0169	490.0000
72.0374	486.0000
72.0578	490.0000
72.0783	556.0000
72.0988	502.0000
72.1193	518.0000
72.1397	563.0000
72.1602	548.0000
72.1807	507.0000
72.2012	500.0000
72.2216	528.0000
72.2421	525.0000
72.2626	523.0000
72.2831	513.0000
72.3036	504.0000
72.3240	492.0000
72.3445	490.0000
72.3650	495.0000
72.3855	483.0000
72.4059	506.0000
72.4264	508.0000
72.4469	531.0000
72.4674	459.0000
72.4878	486.0000
72.5083	474.0000
72.5288	504.0000
72.5493	470.0000
72.5697	508.0000
72.5902	506.0000
72.6107	419.0000
72.6312	449.0000
72.6516	479.0000
72.6721	500.0000
72.6926	456.0000
72.7131	487.0000
72.7335	505.0000
72.7540	518.0000
72.7745	489.0000
72.7950	509.0000
72.8154	522.0000
72.8359	505.0000
72.8564	497.0000
72.8769	485.0000
72.8973	488.0000
72.9178	504.0000
72.9383	498.0000
72.9588	486.0000
72.9792	530.0000
72.9997	476.0000
73.0202	479.0000
73.0407	494.0000
73.0612	427.0000
73.0816	483.0000
73.1021	498.0000
73.1226	491.0000
73.1431	478.0000
73.1635	493.0000
73.1840	481.0000
73.2045	458.0000
73.2250	478.0000
73.2454	494.0000
73.2659	472.0000
73.2864	506.0000
73.3069	476.0000
73.3273	460.0000
73.3478	476.0000
73.3683	493.0000
73.3888	451.0000
73.4092	455.0000
73.4297	451.0000
73.4502	491.0000
73.4707	450.0000
73.4911	465.0000
73.5116	456.0000
73.5321	471.0000
73.5526	474.0000
73.5730	491.0000
73.5935	507.0000
73.6140	491.0000
73.6345	444.0000
73.6549	533.0000
73.6754	483.0000
73.6959	477.0000
73.7164	480.0000
73.7368	484.0000
73.7573	456.0000
73.7778	424.0000
73.7983	470.0000
73.8187	472.0000
73.8392	436.0000
73.8597	458.0000
73.8802	462.0000
73.9007	459.0000
73.9211	444.0000
73.9416	475.0000
73.9621	473.0000
73.9826	420.0000
74.0030	494.0000
74.0235	437.0000
74.0440	457.0000
74.0645	484.0000
74.0849	453.0000
74.1054	457.0000
74.1259	419.0000
74.1464	394.0000
74.1668	464.0000
74.1873	467.0000
74.2078	487.0000
74.2283	502.0000
74.2487	466.0000
74.2692	469.0000
74.2897	461.0000
74.3102	459.0000
74.3306	469.0000
74.3511	457.0000
74.3716	444.0000
74.3921	453.0000
74.4125	444.0000
74.4330	499.0000
74.4535	468.0000
74.4740	472.0000
74.4944	470.0000
74.5149	479.0000
74.5354	469.0000
74.5559	468.0000
74.5763	429.0000
74.5968	460.0000
74.6173	424.0000
74.6378	447.0000
74.6583	465.0000
74.6787	475.0000
74.6992	426.0000
74.7197	459.0000
74.7402	448.0000
74.7606	426.0000
74.7811	417.0000
74.8016	437.0000
74.8221	441.0000
74.8425	412.0000
74.8630	413.0000
74.8835	432.0000
74.9040	433.0000
74.9244	443.0000
74.9449	434.0000
74.9654	467.0000
74.9859	410.0000
75.0063	445.0000
75.0268	455.0000
75.0473	441.0000
75.0678	449.0000
75.0882	456.0000
75.1087	443.0000
75.1292	446.0000
75.1497	430.0000
75.1701	480.0000
75.1906	452.0000
75.2111	445.0000
75.2316	464.0000
75.2520	480.0000
75.2725	466.0000
75.2930	435.0000
75.3135	441.0000
75.3339	413.0000
75.3544	450.0000
75.3749	472.0000
75.3954	464.0000
75.4159	480.0000
75.4363	445.0000
75.4568	427.0000
75.4773	443.0000
75.4978	449.0000
75.5182	461.0000
75.5387	454.0000
75.5592	484.0000
75.5797	460.0000
75.6001	455.0000
75.6206	470.0000
75.6411	447.0000
75.6616	411.0000
75.6820	459.0000
75.7025	462.0000
75.7230	487.0000
75.7435	468.0000
75.7639	477.0000
75.7844	462.0000
75.8049	451.0000
75.8254	463.0000
75.8458	456.0000
75.8663	467.0000
75.8868	445.0000
75.9073	429.0000
75.9277	458.0000
75.9482	467.0000
75.9687	443.0000
75.9892	431.0000
76.0096	441.0000
76.0301	417.0000
76.0506	431.0000
76.0711	470.0000
76.0915	430.0000
76.1120	438.0000
76.1325	462.0000
76.1530	436.0000
76.1734	444.0000
76.1939	454.0000
76.2144	419.0000
76.2349	449.0000
76.2554	482.0000
76.2758	425.0000
76.2963	454.0000
76.3168	464.0000
76.3373	476.0000
76.3577	456.0000
76.3782	415.0000
76.3987	465.0000
76.4192	435.0000
76.4396	464.0000
76.4601	454.0000
76.4806	468.0000
76.5011	456.0000
76.5215	432.0000
76.5420	447.0000
76.5625	453.0000
76.5830	496.0000
76.6034	435.0000
76.6239	447.0000
76.6444	425.0000
76.6649	476.0000
76.6853	455.0000
76.7058	431.0000
76.7263	437.0000
76.7468	424.0000
76.7672	416.0000
76.7877	442.0000
76.8082	462.0000
76.8287	451.0000
76.8491	448.0000
76.8696	461.0000
76.8901	451.0000
76.9106	445.0000
76.9310	446.0000
76.9515	452.0000
76.9720	447.0000
76.9925	487.0000
77.0130	485.0000
77.0334	437.0000
77.0539	472.0000
77.0744	425.0000
77.0949	426.0000
77.1153	427.0000
77.1358	465.0000
77.1563	438.0000
77.1768	476.0000
77.1972	440.0000
77.2177	448.0000
77.2382	459.0000
77.2587	483.0000
77.2791	455.0000
77.2996	431.0000
77.3201	460.0000
77.3406	482.0000
77.3610	464.0000
77.3815	461.0000
77.4020	444.0000
77.4225	426.0000
77.4429	433.0000
77.4634	435.0000
77.4839	442.0000
77.5044	462.0000
77.5248	495.0000
77.5453	438.0000
77.5658	437.0000
77.5863	474.0000
77.6067	444.0000
77.6272	484.0000
77.6477	464.0000
77.6682	433.0000
77.6886	459.0000
77.7091	459.0000
77.7296	471.0000
77.7501	416.0000
77.7705	441.0000
77.7910	474.0000
77.8115	489.0000
77.8320	454.0000
77.8525	464.0000
77.8729	500.0000
77.8934	460.0000
77.9139	496.0000
77.9344	463.0000
77.9548	446.0000
77.9753	436.0000
77.9958	447.0000
78.0163	489.0000
78.0367	444.0000
78.0572	477.0000
78.0777	417.0000
78.0982	454.0000
78.1186	512.0000
78.1391	451.0000
78.1596	445.0000
78.1801	406.0000
78.2005	463.0000
78.2210	476.0000
78.2415	475.0000
78.2620	450.0000
78.2824	420.0000
78.3029	468.0000
78.3234	493.0000
78.3439	446.0000
78.3643	482.0000
78.3848	476.0000
78.4053	457.0000
78.4258	446.0000
78.4462	470.0000
78.4667	466.0000
78.4872	467.0000
78.5077	471.0000
78.5281	464.0000
78.5486	506.0000
78.5691	445.0000
78.5896	455.0000
78.6101	469.0000
78.6305	487.0000
78.6510	483.0000
78.6715	453.0000
78.6920	442.0000
78.7124	480.0000
78.7329	456.0000
78.7534	444.0000
78.7739	469.0000
78.7943	469.0000
78.8148	465.0000
78.8353	469.0000
78.8558	458.0000
78.8762	507.0000
78.8967	477.0000
78.9172	466.0000
78.9377	519.0000
78.9581	487.0000
78.9786	464.0000
78.9991	437.0000
79.0196	462.0000
79.0400	470.0000
79.0605	530.0000
79.0810	497.0000
79.1015	495.0000
79.1219	442.0000
79.1424	475.0000
79.1629	471.0000
79.1834	489.0000
79.2038	480.0000
79.2243	480.0000
79.2448	496.0000
79.2653	459.0000
79.2857	499.0000
79.3062	471.0000
79.3267	474.0000
79.3472	521.0000
79.3677	478.0000
79.3881	518.0000
79.4086	463.0000
79.4291	471.0000
79.4496	493.0000
79.4700	484.0000
79.4905	501.0000
79.5110	507.0000
79.5315	451.0000
79.5519	469.0000
79.5724	515.0000
79.5929	530.0000
79.6134	507.0000
79.6338	505.0000
79.6543	463.0000
79.6748	509.0000
79.6953	494.0000
79.7157	491.0000
79.7362	429.0000
79.7567	481.0000
79.7772	514.0000
79.7976	492.0000
79.8181	470.0000
79.8386	514.0000
79.8591	462.0000
79.8795	515.0000
79.9000	522.0000
79.9205	483.0000
79.9410	499.0000
79.9614	538.0000
79.9819	540.0000
80.0024	510.0000
80.0229	501.0000
80.0433	483.0000
80.0638	537.0000
80.0843	448.0000
80.1048	508.0000
80.1252	505.0000
80.1457	479.0000
80.1662	506.0000
80.1867	534.0000
80.2072	519.0000
80.2276	540.0000
80.2481	514.0000
80.2686	514.0000
80.2891	507.0000
80.3095	509.0000
80.3300	516.0000
80.3505	542.0000
80.3710	545.0000
80.3914	525.0000
80.4119	529.0000
80.4324	502.0000
80.4529	485.0000
80.4733	469.0000
80.4938	498.0000
80.5143	499.0000
80.5348	484.0000
80.5552	529.0000
80.5757	490.0000
80.5962	511.0000
80.6167	518.0000
80.6371	552.0000
80.6576	541.0000
80.6781	520.0000
80.6986	514.0000
80.7190	543.0000
80.7395	544.0000
80.7600	538.0000
80.7805	512.0000
80.8009	540.0000
80.8214	500.0000
80.8419	519.0000
80.8624	568.0000
80.8828	521.0000
80.9033	514.0000
80.9238	554.0000
80.9443	531.0000
80.9648	540.0000
80.9852	513.0000
81.0057	519.0000
81.0262	533.0000
81.0467	497.0000
81.0671	539.0000
81.0876	549.0000
81.1081	566.0000
81.1286	508.0000
81.1490	566.0000
81.1695	562.0000
81.1900	519.0000
81.2105	539.0000
81.2309	566.0000
81.2514	559.0000
81.2719	552.0000
81.2924	575.0000
81.3128	582.0000
81.3333	570.0000
81.3538	561.0000
81.3743	580.0000
81.3947	524.0000
81.4152	592.0000
81.4357	563.0000
81.4562	587.0000
81.4766	590.0000
81.4971	565.0000
81.5176	569.0000
81.5381	582.0000
81.5585	563.0000
81.5790	598.0000
81.5995	527.0000
81.6200	576.0000
81.6404	606.0000
81.6609	565.0000
81.6814	648.0000
81.7019	635.0000
81.7223	575.0000
81.7428	584.0000
81.7633	582.0000
81.7838	568.0000
81.8043	589.0000
81.8247	586.0000
81.8452	594.0000
81.8657	582.0000
81.8862	597.0000
81.9066	652.0000
81.9271	531.0000
81.9476	626.0000
81.9681	645.0000
81.9885	623.0000
82.0090	588.0000
82.0295	641.0000
82.0500	597.0000
82.0704	565.0000
82.0909	601.0000
82.1114	657.0000
82.1319	565.0000
82.1523	609.0000
82.1728	608.0000
82.1933	591.0000
82.2138	650.0000
82.2342	635.0000
82.2547	586.0000
82.2752	600.0000
82.2957	639.0000
82.3161	615.0000
82.3366	644.0000
82.3571	655.0000
82.3776	623.0000
82.3980	649.0000
82.4185	619.0000
82.4390	655.0000
82.4595	626.0000
82.4799	665.0000
82.5004	662.0000
82.5209	636.0000
82.5414	600.0000
82.5619	626.0000
82.5823	633.0000
82.6028	619.0000
82.6233	626.0000
82.6438	676.0000
82.6642	637.0000
82.6847	665.0000
82.7052	657.0000
82.7257	633.0000
82.7461	642.0000
82.7666	656.0000
82.7871	725.0000
82.8076	690.0000
82.8280	671.0000
82.8485	607.0000
82.8690	620.0000
82.8895	663.0000
82.9099	668.0000
82.9304	663.0000
82.9509	641.0000
82.9714	638.0000
82.9918	638.0000
83.0123	667.0000
83.0328	639.0000
83.0533	675.0000
83.0737	656.0000
83.0942	601.0000
83.1147	667.0000
83.1352	683.0000
83.1556	703.0000
83.1761	685.0000
83.1966	677.0000
83.2171	641.0000
83.2375	607.0000
83.2580	716.0000
83.2785	706.0000
83.2990	708.0000
83.3195	690.0000
83.3399	684.0000
83.3604	682.0000
83.3809	663.0000
83.4014	659.0000
83.4218	714.0000
83.4423	631.0000
83.4628	674.0000
83.4833	706.0000
83.5037	671.0000
83.5242	695.0000
83.5447	680.0000
83.5652	674.0000
83.5856	647.0000
83.6061	699.0000
83.6266	664.0000
83.6471	671.0000
83.6675	683.0000
83.6880	672.0000
83.7085	719.0000
83.7290	655.0000
83.7494	689.0000
83.7699	703.0000
83.7904	691.0000
83.8109	674.0000
83.8313	670.0000
83.8518	696.0000
83.8723	676.0000
83.8928	652.0000
83.9132	687.0000
83.9337	707.0000
83.9542	640.0000
83.9747	702.0000
83.9951	674.0000
84.0156	667.0000
84.0361	689.0000
84.0566	698.0000
84.0770	643.0000
84.0975	689.0000
84.1180	665.0000
84.1385	691.0000
84.1590	693.0000
84.1794	748.0000
84.1999	684.0000
84.2204	666.0000
84.2409	691.0000
84.2613	640.0000
84.2818	681.0000
84.3023	664.0000
84.3228	648.0000
84.3432	692.0000
84.3637	685.0000
84.3842	745.0000
84.4047	675.0000
84.4251	692.0000
84.4456	687.0000
84.4661	683.0000
84.4866	671.0000
84.5070	665.0000
84.5275	674.0000
84.5480	686.0000
84.5685	659.0000
84.5889	682.0000
84.6094	702.0000
84.6299	638.0000
84.6504	671.0000
84.6708	658.0000
84.6913	665.0000
84.7118	654.0000
84.7323	682.0000
84.7527	705.0000
84.7732	622.0000
84.7937	620.0000
84.8142	683.0000
84.8346	672.0000
84.8551	673.0000
84.8756	676.0000
84.8961	704.0000
84.9166	658.0000
84.9370	660.0000
84.9575	679.0000
84.9780	672.0000
84.9985	665.0000
85.0189	677.0000
85.0394	600.0000
85.0599	612.0000
85.0804	640.0000
85.1008	671.0000
85.1213	640.0000
85.1418	635.0000
85.1623	640.0000
85.1827	620.0000
85.2032	615.0000
85.2237	616.0000
85.2442	604.0000
85.2646	584.0000
85.2851	593.0000
85.3056	607.0000
85.3261	657.0000
85.3465	590.0000
85.3670	620.0000
85.3875	620.0000
85.4080	634.0000
85.4284	567.0000
85.4489	529.0000
85.4694	573.0000
85.4899	571.0000
85.5103	585.0000
85.5308	576.0000
85.5513	608.0000
85.5718	602.0000
85.5922	592.0000
85.6127	589.0000
85.6332	580.0000
85.6537	600.0000
85.6741	589.0000
85.6946	572.0000
85.7151	616.0000
85.7356	565.0000
85.7561	605.0000
85.7765	593.0000
85.7970	582.0000
85.8175	526.0000
85.8380	551.0000
85.8584	589.0000
85.8789	538.0000
85.8994	522.0000
85.9199	566.0000
85.9403	557.0000
85.9608	575.0000
85.9813	531.0000
86.0018	564.0000
86.0222	572.0000
86.0427	528.0000
86.0632	580.0000
86.0837	537.0000
86.1041	540.0000
86.1246	553.0000
86.1451	537.0000
86.1656	532.0000
86.1860	553.0000
86.2065	570.0000
86.2270	503.0000
86.2475	539.0000
86.2679	582.0000
86.2884	502.0000
86.3089	549.0000
86.3294	550.0000
86.3498	543.0000
86.3703	540.0000
86.3908	564.0000
86.4113	535.0000
86.4317	539.0000
86.4522	483.0000
86.4727	573.0000
86.4932	512.0000
86.5137	560.0000
86.5341	566.0000
86.5546	524.0000
86.5751	537.0000
86.5956	526.0000
86.6160	521.0000
86.6365	503.0000
86.6570	518.0000
86.6775	516.0000
86.6979	529.0000
86.7184	515.0000
86.7389	490.0000
86.7594	535.0000
86.7798	511.0000
86.8003	503.0000
86.8208	522.0000
86.8413	487.0000
86.8617	519.0000
86.8822	516.0000
86.9027	499.0000
86.9232	496.0000
86.9436	499.0000
86.9641	507.0000
86.9846	496.0000
87.0051	470.0000
87.0255	498.0000
87.0460	477.0000
87.0665	533.0000
87.0870	473.0000
87.1074	508.0000
87.1279	472.0000
87.1484	508.0000
87.1689	496.0000
87.1893	480.0000
87.2098	516.0000
87.2303	480.0000
87.2508	489.0000
87.2713	493.0000
87.2917	474.0000
87.3122	508.0000
87.3327	477.0000
87.3532	473.0000
87.3736	521.0000
87.3941	482.0000
87.4146	503.0000
87.4351	473.0000
87.4555	457.0000
87.4760	481.0000
87.4965	453.0000
87.5170	495.0000
87.5374	433.0000
87.5579	498.0000
87.5784	504.0000
87.5989	487.0000
87.6193	474.0000
87.6398	459.0000
87.6603	518.0000
87.6808	490.0000
87.7012	513.0000
87.7217	456.0000
87.7422	497.0000
87.7627	462.0000
87.7831	467.0000
87.8036	495.0000
87.8241	459.0000
87.8446	446.0000
87.8650	462.0000
87.8855	470.0000
87.9060	515.0000
87.9265	462.0000
87.9469	488.0000
87.9674	490.0000
87.9879	470.0000
88.0084	440.0000
88.0288	444.0000
88.0493	482.0000
88.0698	425.0000
88.0903	481.0000
88.1108	470.0000
88.1312	505.0000
88.1517	448.0000
88.1722	464.0000
88.1927	458.0000
88.2131	479.0000
88.2336	498.0000
88.2541	462.0000
88.2746	499.0000
88.2950	478.0000
88.3155	475.0000
88.3360	478.0000
88.3565	428.0000
88.3769	464.0000
88.3974	464.0000
88.4179	492.0000
88.4384	459.0000
88.4588	466.0000
88.4793	502.0000
88.4998	470.0000
88.5203	428.0000
88.5407	496.0000
88.5612	473.0000
88.5817	453.0000
88.6022	472.0000
88.6226	488.0000
88.6431	443.0000
88.6636	434.0000
88.6841	433.0000
88.7045	428.0000
88.7250	469.0000
88.7455	436.0000
88.7660	452.0000
88.7864	447.0000
88.8069	492.0000
88.8274	435.0000
88.8479	423.0000
88.8684	423.0000
88.8888	465.0000
88.9093	449.0000
88.9298	425.0000
88.9503	463.0000
88.9707	461.0000
88.9912	441.0000
89.0117	443.0000
89.0322	426.0000
89.0526	423.0000
89.0731	447.0000
89.0936	446.0000
89.1141	477.0000
89.1345	471.0000
89.1550	497.0000
89.1755	457.0000
89.1960	463.0000
89.2164	469.0000
89.2369	447.0000
89.2574	461.0000
89.2779	444.0000
89.2983	436.0000
89.3188	467.0000
89.3393	466.0000
89.3598	458.0000
89.3802	439.0000
89.4007	480.0000
89.4212	460.0000
89.4417	453.0000
89.4621	455.0000
89.4826	466.0000
89.5031	446.0000
89.5236	462.0000
89.5440	439.0000
89.5645	422.0000
89.5850	451.0000
89.6055	418.0000
89.6259	453.0000
89.6464	460.0000
89.6669	454.0000
89.6874	418.0000
89.7079	461.0000
89.7283	455.0000
89.7488	432.0000
89.7693	425.0000
89.7898	449.0000
89.8102	432.0000
89.8307	457.0000
89.8512	480.0000
89.8717	440.0000
89.8921	419.0000
89.9126	438.0000
89.9331	440.0000
89.9536	435.0000
89.9740	435.0000
89.9945	403.0000
90.0150	448.0000
