   10     272
   10.02     309
   10.04     301
   10.06     277
   10.08     279
   10.1     318
   10.12     315
   10.14     296
   10.16     301
   10.18     295
   10.2     273
   10.22     308
   10.24     322
   10.26     297
   10.28     255
   10.3     323
   10.32     268
   10.34     321
   10.36     285
   10.38     284
   10.4     270
   10.42     287
   10.44     266
   10.46     294
   10.48     284
   10.5     315
   10.52     266
   10.54     273
   10.56     277
   10.58     278
   10.6     260
   10.62     278
   10.64     289
   10.66     296
   10.68     270
   10.7     256
   10.72     294
   10.74     280
   10.76     274
   10.78     282
   10.8     292
   10.82     318
   10.84     306
   10.86     289
   10.88     276
   10.9     288
   10.92     279
   10.94     283
   10.96     297
   10.98     301
   11     287
   11.02     298
   11.04     306
   11.06     293
   11.08     282
   11.1     353
   11.12     319
   11.14     326
   11.16     292
   11.18     284
   11.2     286
   11.22     260
   11.24     250
   11.26     266
   11.28     290
   11.3     283
   11.32     239
   11.34     260
   11.36     277
   11.38     260
   11.4     271
   11.42     254
   11.44     256
   11.46     304
   11.48     227
   11.5     276
   11.52     269
   11.54     275
   11.56     253
   11.58     240
   11.6     267
   11.62     253
   11.64     263
   11.66     283
   11.68     261
   11.7     261
   11.72     226
   11.74     247
   11.76     271
   11.78     257
   11.8     246
   11.82     268
   11.84     256
   11.86     268
   11.88     258
   11.9     231
   11.92     266
   11.94     254
   11.96     250
   11.98     267
   12     235
   12.02     264
   12.04     266
   12.06     247
   12.08     270
   12.1     241
   12.12     233
   12.14     245
   12.16     248
   12.18     229
   12.2     237
   12.22     234
   12.24     228
   12.26     264
   12.28     218
   12.3     265
   12.32     228
   12.34     236
   12.36     228
   12.38     230
   12.4     227
   12.42     226
   12.44     243
   12.46     247
   12.48     219
   12.5     245
   12.52     230
   12.54     241
   12.56     244
   12.58     265
   12.6     212
   12.62     237
   12.64     248
   12.66     267
   12.68     213
   12.7     227
   12.72     229
   12.74     237
   12.76     243
   12.78     239
   12.8     247
   12.82     223
   12.84     223
   12.86     228
   12.88     257
   12.9     228
   12.92     246
   12.94     220
   12.96     232
   12.98     213
   13     249
   13.02     221
   13.04     230
   13.06     202
   13.08     254
   13.1     218
   13.12     198
   13.14     212
   13.16     207
   13.18     245
   13.2     235
   13.22     200
   13.24     194
   13.26     222
   13.28     220
   13.3     214
   13.32     233
   13.34     190
   13.36     218
   13.38     206
   13.4     199
   13.42     232
   13.44     225
   13.46     240
   13.48     235
   13.5     212
   13.52     251
   13.54     242
   13.56     229
   13.58     230
   13.6     241
   13.62     231
   13.64     196
   13.66     218
   13.68     224
   13.7     229
   13.72     198
   13.74     211
   13.76     229
   13.78     210
   13.8     206
   13.82     214
   13.84     198
   13.86     228
   13.88     223
   13.9     233
   13.92     227
   13.94     207
   13.96     215
   13.98     208
   14     202
   14.02     195
   14.04     188
   14.06     217
   14.08     219
   14.1     200
   14.12     197
   14.14     211
   14.16     178
   14.18     176
   14.2     219
   14.22     183
   14.24     222
   14.26     193
   14.28     201
   14.3     195
   14.32     202
   14.34     181
   14.36     201
   14.38     205
   14.4     214
   14.42     201
   14.44     211
   14.46     194
   14.48     192
   14.5     195
   14.52     213
   14.54     204
   14.56     210
   14.58     205
   14.6     199
   14.62     198
   14.64     170
   14.66     206
   14.68     186
   14.7     173
   14.72     215
   14.74     194
   14.76     179
   14.78     195
   14.8     166
   14.82     198
   14.84     191
   14.86     204
   14.88     170
   14.9     173
   14.92     179
   14.94     188
   14.96     210
   14.98     191
   15     198
   15.02     192
   15.04     201
   15.06     197
   15.08     193
   15.1     164
   15.12     183
   15.14     205
   15.16     165
   15.18     220
   15.2     173
   15.22     178
   15.24     188
   15.26     180
   15.28     184
   15.3     184
   15.32     183
   15.34     151
   15.36     214
   15.38     206
   15.4     207
   15.42     204
   15.44     186
   15.46     159
   15.48     191
   15.5     165
   15.52     199
   15.54     179
   15.56     181
   15.58     181
   15.6     182
   15.62     166
   15.64     176
   15.66     214
   15.68     174
   15.7     161
   15.72     171
   15.74     203
   15.76     172
   15.78     164
   15.8     169
   15.82     187
   15.84     142
   15.86     179
   15.88     179
   15.9     185
   15.92     184
   15.94     164
   15.96     211
   15.98     186
   16     181
   16.02     175
   16.04     188
   16.06     170
   16.08     202
   16.1     164
   16.12     174
   16.14     186
   16.16     180
   16.18     192
   16.2     163
   16.22     189
   16.24     179
   16.26     157
   16.28     169
   16.3     148
   16.32     188
   16.34     176
   16.36     168
   16.38     167
   16.4     169
   16.42     180
   16.44     175
   16.46     166
   16.48     146
   16.5     149
   16.52     195
   16.54     145
   16.56     176
   16.58     157
   16.6     182
   16.62     168
   16.64     164
   16.66     167
   16.68     157
   16.7     172
   16.72     164
   16.74     185
   16.76     151
   16.78     186
   16.8     176
   16.82     145
   16.84     165
   16.86     136
   16.88     158
   16.9     168
   16.92     171
   16.94     168
   16.96     184
   16.98     178
   17     181
   17.02     174
   17.04     152
   17.06     179
   17.08     151
   17.1     168
   17.12     170
   17.14     157
   17.16     182
   17.18     162
   17.2     167
   17.22     159
   17.24     172
   17.26     168
   17.28     187
   17.3     183
   17.32     171
   17.34     178
   17.36     176
   17.38     169
   17.4     174
   17.42     168
   17.44     174
   17.46     191
   17.48     187
   17.5     170
   17.52     183
   17.54     192
   17.56     185
   17.58     173
   17.6     180
   17.62     159
   17.64     184
   17.66     168
   17.68     175
   17.7     154
   17.72     178
   17.74     152
   17.76     171
   17.78     196
   17.8     185
   17.82     181
   17.84     170
   17.86     181
   17.88     185
   17.9     169
   17.92     197
   17.94     148
   17.96     159
   17.98     178
   18     156
   18.02     176
   18.04     176
   18.06     176
   18.08     188
   18.1     177
   18.12     185
   18.14     157
   18.16     175
   18.18     147
   18.2     183
   18.22     169
   18.24     149
   18.26     168
   18.28     153
   18.3     180
   18.32     155
   18.34     153
   18.36     145
   18.38     175
   18.4     176
   18.42     167
   18.44     179
   18.46     180
   18.48     168
   18.5     140
   18.52     149
   18.54     179
   18.56     158
   18.58     165
   18.6     152
   18.62     153
   18.64     162
   18.66     169
   18.68     156
   18.7     160
   18.72     159
   18.74     151
   18.76     158
   18.78     161
   18.8     162
   18.82     166
   18.84     164
   18.86     154
   18.88     157
   18.9     153
   18.92     165
   18.94     163
   18.96     143
   18.98     175
   19     157
   19.02     166
   19.04     159
   19.06     166
   19.08     169
   19.1     186
   19.12     144
   19.14     164
   19.16     169
   19.18     161
   19.2     165
   19.22     168
   19.24     136
   19.26     160
   19.28     153
   19.3     166
   19.32     159
   19.34     149
   19.36     156
   19.38     168
   19.4     150
   19.42     154
   19.44     116
   19.46     162
   19.48     159
   19.5     167
   19.52     155
   19.54     170
   19.56     158
   19.58     172
   19.6     174
   19.62     158
   19.64     140
   19.66     149
   19.68     172
   19.7     164
   19.72     179
   19.74     161
   19.76     179
   19.78     184
   19.8     183
   19.82     156
   19.84     165
   19.86     176
   19.88     172
   19.9     144
   19.92     189
   19.94     172
   19.96     190
   19.98     223
   20     247
   20.02     186
   20.04     256
   20.06     221
   20.08     260
   20.1     306
   20.12     340
   20.14     359
   20.16     368
   20.18     342
   20.2     309
   20.22     272
   20.24     246
   20.26     234
   20.28     194
   20.3     203
   20.32     183
   20.34     186
   20.36     196
   20.38     186
   20.4     154
   20.42     155
   20.44     169
   20.46     170
   20.48     181
   20.5     185
   20.52     162
   20.54     168
   20.56     175
   20.58     194
   20.6     171
   20.62     162
   20.64     197
   20.66     154
   20.68     156
   20.7     172
   20.72     177
   20.74     171
   20.76     171
   20.78     158
   20.8     154
   20.82     173
   20.84     161
   20.86     155
   20.88     171
   20.9     157
   20.92     151
   20.94     167
   20.96     174
   20.98     154
   21     177
   21.02     166
   21.04     182
   21.06     159
   21.08     153
   21.1     177
   21.12     159
   21.14     177
   21.16     153
   21.18     169
   21.2     174
   21.22     182
   21.24     158
   21.26     185
   21.28     133
   21.3     133
   21.32     159
   21.34     156
   21.36     152
   21.38     158
   21.4     163
   21.42     161
   21.44     161
   21.46     138
   21.48     163
   21.5     147
   21.52     171
   21.54     173
   21.56     181
   21.58     132
   21.6     141
   21.62     140
   21.64     147
   21.66     155
   21.68     152
   21.7     157
   21.72     151
   21.74     162
   21.76     179
   21.78     155
   21.8     145
   21.82     155
   21.84     148
   21.86     150
   21.88     167
   21.9     146
   21.92     127
   21.94     145
   21.96     158
   21.98     134
   22     160
   22.02     157
   22.04     163
   22.06     127
   22.08     158
   22.1     140
   22.12     165
   22.14     169
   22.16     156
   22.18     175
   22.2     174
   22.22     180
   22.24     195
   22.26     205
   22.28     201
   22.3     207
   22.32     209
   22.34     249
   22.36     236
   22.38     216
   22.4     198
   22.42     191
   22.44     154
   22.46     135
   22.48     181
   22.5     158
   22.52     128
   22.54     162
   22.56     157
   22.58     183
   22.6     158
   22.62     172
   22.64     138
   22.66     142
   22.68     160
   22.7     165
   22.72     150
   22.74     135
   22.76     164
   22.78     140
   22.8     156
   22.82     152
   22.84     166
   22.86     150
   22.88     164
   22.9     158
   22.92     184
   22.94     151
   22.96     195
   22.98     185
   23     198
   23.02     195
   23.04     191
   23.06     203
   23.08     185
   23.1     212
   23.12     159
   23.14     178
   23.16     170
   23.18     176
   23.2     188
   23.22     170
   23.24     163
   23.26     147
   23.28     146
   23.3     133
   23.32     151
   23.34     169
   23.36     152
   23.38     151
   23.4     142
   23.42     170
   23.44     146
   23.46     158
   23.48     156
   23.5     156
   23.52     155
   23.54     157
   23.56     142
   23.58     131
   23.6     150
   23.62     148
   23.64     150
   23.66     142
   23.68     151
   23.7     136
   23.72     162
   23.74     147
   23.76     128
   23.78     138
   23.8     138
   23.82     131
   23.84     155
   23.86     127
   23.88     131
   23.9     130
   23.92     151
   23.94     134
   23.96     155
   23.98     155
   24     157
   24.02     136
   24.04     151
   24.06     152
   24.08     145
   24.1     150
   24.12     135
   24.14     151
   24.16     160
   24.18     141
   24.2     140
   24.22     165
   24.24     144
   24.26     148
   24.28     136
   24.3     176
   24.32     154
   24.34     156
   24.36     170
   24.38     145
   24.4     154
   24.42     154
   24.44     131
   24.46     156
   24.48     136
   24.5     145
   24.52     128
   24.54     133
   24.56     158
   24.58     137
   24.6     142
   24.62     133
   24.64     136
   24.66     139
   24.68     156
   24.7     158
   24.72     154
   24.74     140
   24.76     140
   24.78     133
   24.8     151
   24.82     154
   24.84     147
   24.86     136
   24.88     121
   24.9     145
   24.92     131
   24.94     132
   24.96     149
   24.98     148
   25     159
   25.02     127
   25.04     147
   25.06     143
   25.08     143
   25.1     116
   25.12     140
   25.14     146
   25.16     157
   25.18     152
   25.2     125
   25.22     138
   25.24     147
   25.26     163
   25.28     140
   25.3     127
   25.32     123
   25.34     149
   25.36     137
   25.38     139
   25.4     128
   25.42     147
   25.44     130
   25.46     147
   25.48     141
   25.5     124
   25.52     138
   25.54     163
   25.56     149
   25.58     134
   25.6     121
   25.62     138
   25.64     142
   25.66     134
   25.68     136
   25.7     153
   25.72     126
   25.74     135
   25.76     120
   25.78     127
   25.8     136
   25.82     163
   25.84     131
   25.86     111
   25.88     149
   25.9     140
   25.92     155
   25.94     128
   25.96     136
   25.98     123
   26     136
   26.02     145
   26.04     146
   26.06     135
   26.08     144
   26.1     147
   26.12     129
   26.14     136
   26.16     144
   26.18     137
   26.2     136
   26.22     135
   26.24     134
   26.26     120
   26.28     163
   26.3     128
   26.32     144
   26.34     137
   26.36     125
   26.38     105
   26.4     143
   26.42     125
   26.44     161
   26.46     129
   26.48     131
   26.5     171
   26.52     150
   26.54     144
   26.56     138
   26.58     123
   26.6     137
   26.62     130
   26.64     138
   26.66     147
   26.68     149
   26.7     145
   26.72     152
   26.74     136
   26.76     131
   26.78     134
   26.8     151
   26.82     121
   26.84     140
   26.86     144
   26.88     121
   26.9     129
   26.92     149
   26.94     129
   26.96     132
   26.98     141
   27     139
   27.02     134
   27.04     122
   27.06     141
   27.08     127
   27.1     137
   27.12     153
   27.14     128
   27.16     134
   27.18     146
   27.2     125
   27.22     133
   27.24     138
   27.26     132
   27.28     142
   27.3     153
   27.32     148
   27.34     147
   27.36     124
   27.38     130
   27.4     129
   27.42     152
   27.44     145
   27.46     140
   27.48     152
   27.5     135
   27.52     116
   27.54     133
   27.56     143
   27.58     140
   27.6     118
   27.62     130
   27.64     125
   27.66     133
   27.68     132
   27.7     158
   27.72     123
   27.74     141
   27.76     116
   27.78     144
   27.8     129
   27.82     149
   27.84     150
   27.86     132
   27.88     136
   27.9     138
   27.92     134
   27.94     134
   27.96     133
   27.98     140
   28     130
   28.02     112
   28.04     138
   28.06     114
   28.08     144
   28.1     133
   28.12     149
   28.14     125
   28.16     115
   28.18     141
   28.2     133
   28.22     129
   28.24     140
   28.26     132
   28.28     143
   28.3     123
   28.32     135
   28.34     156
   28.36     135
   28.38     113
   28.4     142
   28.42     128
   28.44     141
   28.46     132
   28.48     147
   28.5     126
   28.52     132
   28.54     142
   28.56     136
   28.58     155
   28.6     115
   28.62     148
   28.64     155
   28.66     145
   28.68     125
   28.7     125
   28.72     141
   28.74     142
   28.76     134
   28.78     141
   28.8     146
   28.82     134
   28.84     132
   28.86     134
   28.88     141
   28.9     139
   28.92     121
   28.94     132
   28.96     143
   28.98     142
   29     126
   29.02     152
   29.04     140
   29.06     136
   29.08     112
   29.1     128
   29.12     120
   29.14     134
   29.16     142
   29.18     111
   29.2     129
   29.22     145
   29.24     125
   29.26     128
   29.28     137
   29.3     139
   29.32     139
   29.34     119
   29.36     136
   29.38     126
   29.4     137
   29.42     99
   29.44     118
   29.46     128
   29.48     127
   29.5     131
   29.52     128
   29.54     154
   29.56     137
   29.58     128
   29.6     123
   29.62     151
   29.64     163
   29.66     120
   29.68     121
   29.7     122
   29.72     121
   29.74     116
   29.76     162
   29.78     124
   29.8     134
   29.82     142
   29.84     138
   29.86     120
   29.88     144
   29.9     130
   29.92     147
   29.94     157
   29.96     161
   29.98     131
   30     119
   30.02     135
   30.04     151
   30.06     165
   30.08     137
   30.1     146
   30.12     138
   30.14     169
   30.16     169
   30.18     173
   30.2     153
   30.22     181
   30.24     182
   30.26     176
   30.28     168
   30.3     164
   30.32     163
   30.34     154
   30.36     164
   30.38     149
   30.4     149
   30.42     127
   30.44     157
   30.46     137
   30.48     142
   30.5     161
   30.52     130
   30.54     147
   30.56     148
   30.58     142
   30.6     139
   30.62     159
   30.64     156
   30.66     159
   30.68     125
   30.7     155
   30.72     141
   30.74     123
   30.76     120
   30.78     138
   30.8     137
   30.82     119
   30.84     133
   30.86     137
   30.88     165
   30.9     156
   30.92     156
   30.94     135
   30.96     170
   30.98     132
   31     145
   31.02     137
   31.04     136
   31.06     138
   31.08     151
   31.1     136
   31.12     146
   31.14     134
   31.16     114
   31.18     128
   31.2     117
   31.22     115
   31.24     113
   31.26     118
   31.28     116
   31.3     120
   31.32     130
   31.34     127
   31.36     132
   31.38     118
   31.4     132
   31.42     131
   31.44     135
   31.46     130
   31.48     121
   31.5     135
   31.52     137
   31.54     124
   31.56     140
   31.58     138
   31.6     127
   31.62     128
   31.64     125
   31.66     139
   31.68     140
   31.7     139
   31.72     128
   31.74     131
   31.76     130
   31.78     129
   31.8     136
   31.82     149
   31.84     141
   31.86     131
   31.88     140
   31.9     131
   31.92     153
   31.94     137
   31.96     156
   31.98     145
   32     141
   32.02     152
   32.04     140
   32.06     139
   32.08     150
   32.1     164
   32.12     151
   32.14     127
   32.16     140
   32.18     136
   32.2     132
   32.22     162
   32.24     146
   32.26     156
   32.28     153
   32.3     125
   32.32     133
   32.34     161
   32.36     151
   32.38     153
   32.4     134
   32.42     159
   32.44     117
   32.46     157
   32.48     173
   32.5     164
   32.52     156
   32.54     157
   32.56     160
   32.58     151
   32.6     169
   32.62     150
   32.64     147
   32.66     145
   32.68     147
   32.7     158
   32.72     147
   32.74     152
   32.76     157
   32.78     168
   32.8     173
   32.82     168
   32.84     140
   32.86     148
   32.88     140
   32.9     161
   32.92     137
   32.94     164
   32.96     161
   32.98     160
   33     156
   33.02     172
   33.04     169
   33.06     164
   33.08     195
   33.1     162
   33.12     163
   33.14     179
   33.16     172
   33.18     173
   33.2     182
   33.22     161
   33.24     145
   33.26     180
   33.28     139
   33.3     166
   33.32     160
   33.34     170
   33.36     179
   33.38     193
   33.4     169
   33.42     162
   33.44     198
   33.46     202
   33.48     187
   33.5     207
   33.52     207
   33.54     258
   33.56     235
   33.58     242
   33.6     282
   33.62     324
   33.64     350
   33.66     446
   33.68     519
   33.7     631
   33.72     793
   33.74     983
   33.76     1150
   33.78     1106
   33.8     954
   33.82     893
   33.84     757
   33.86     701
   33.88     622
   33.9     470
   33.92     354
   33.94     292
   33.96     265
   33.98     261
   34     279
   34.02     231
   34.04     194
   34.06     206
   34.08     204
   34.1     207
   34.12     185
   34.14     205
   34.16     187
   34.18     179
   34.2     181
   34.22     190
   34.24     211
   34.26     196
   34.28     206
   34.3     190
   34.32     199
   34.34     178
   34.36     195
   34.38     186
   34.4     199
   34.42     208
   34.44     208
   34.46     210
   34.48     212
   34.5     229
   34.52     206
   34.54     234
   34.56     239
   34.58     221
   34.6     244
   34.62     266
   34.64     255
   34.66     237
   34.68     262
   34.7     262
   34.72     296
   34.74     304
   34.76     309
   34.78     325
   34.8     330
   34.82     348
   34.84     405
   34.86     354
   34.88     431
   34.9     432
   34.92     506
   34.94     509
   34.96     525
   34.98     629
   35     663
   35.02     710
   35.04     826
   35.06     973
   35.08     1126
   35.1     1328
   35.12     1645
   35.14     1929
   35.16     2502
   35.18     3070
   35.2     4106
   35.22     5255
   35.24     6790
   35.26     8378
   35.28     9182
   35.3     8488
   35.32     7243
   35.34     6341
   35.36     5857
   35.38     5229
   35.4     4108
   35.42     3126
   35.44     2239
   35.46     1634
   35.48     1426
   35.5     1203
   35.52     1013
   35.54     907
   35.56     815
   35.58     661
   35.6     720
   35.62     670
   35.64     694
   35.66     579
   35.68     531
   35.7     473
   35.72     483
   35.74     431
   35.76     424
   35.78     393
   35.8     352
   35.82     318
   35.84     310
   35.86     291
   35.88     268
   35.9     260
   35.92     249
   35.94     264
   35.96     264
   35.98     244
   36     220
   36.02     245
   36.04     215
   36.06     213
   36.08     214
   36.1     218
   36.12     226
   36.14     216
   36.16     219
   36.18     225
   36.2     211
   36.22     218
   36.24     198
   36.26     220
   36.28     214
   36.3     201
   36.32     197
   36.34     211
   36.36     190
   36.38     191
   36.4     185
   36.42     205
   36.44     191
   36.46     182
   36.48     175
   36.5     180
   36.52     176
   36.54     184
   36.56     184
   36.58     182
   36.6     186
   36.62     185
   36.64     163
   36.66     160
   36.68     162
   36.7     174
   36.72     167
   36.74     171
   36.76     154
   36.78     140
   36.8     196
   36.82     166
   36.84     177
   36.86     161
   36.88     142
   36.9     174
   36.92     174
   36.94     170
   36.96     156
   36.98     165
   37     170
   37.02     178
   37.04     176
   37.06     160
   37.08     165
   37.1     196
   37.12     197
   37.14     213
   37.16     208
   37.18     246
   37.2     206
   37.22     217
   37.24     215
   37.26     202
   37.28     183
   37.3     176
   37.32     164
   37.34     176
   37.36     165
   37.38     173
   37.4     182
   37.42     150
   37.44     169
   37.46     154
   37.48     145
   37.5     168
   37.52     167
   37.54     166
   37.56     155
   37.58     157
   37.6     153
   37.62     148
   37.64     142
   37.66     158
   37.68     147
   37.7     155
   37.72     159
   37.74     166
   37.76     168
   37.78     161
   37.8     155
   37.82     162
   37.84     161
   37.86     170
   37.88     171
   37.9     161
   37.92     169
   37.94     156
   37.96     157
   37.98     162
   38     159
   38.02     174
   38.04     183
   38.06     179
   38.08     187
   38.1     167
   38.12     184
   38.14     175
   38.16     164
   38.18     171
   38.2     198
   38.22     168
   38.24     171
   38.26     181
   38.28     185
   38.3     179
   38.32     176
   38.34     171
   38.36     181
   38.38     175
   38.4     169
   38.42     180
   38.44     179
   38.46     175
   38.48     170
   38.5     185
   38.52     174
   38.54     171
   38.56     170
   38.58     177
   38.6     174
   38.62     195
   38.64     177
   38.66     175
   38.68     190
   38.7     183
   38.72     185
   38.74     184
   38.76     184
   38.78     179
   38.8     200
   38.82     201
   38.84     201
   38.86     211
   38.88     222
   38.9     213
   38.92     199
   38.94     190
   38.96     189
   38.98     188
   39     200
   39.02     230
   39.04     229
   39.06     205
   39.08     234
   39.1     193
   39.12     229
   39.14     255
   39.16     224
   39.18     234
   39.2     240
   39.22     277
   39.24     293
   39.26     292
   39.28     318
   39.3     342
   39.32     348
   39.34     319
   39.36     418
   39.38     410
   39.4     464
   39.42     521
   39.44     642
   39.46     694
   39.48     781
   39.5     976
   39.52     1135
   39.54     1424
   39.56     1760
   39.58     2042
   39.6     2635
   39.62     3261
   39.64     3617
   39.66     3459
   39.68     2901
   39.7     2461
   39.72     2327
   39.74     2339
   39.76     2008
   39.78     1641
   39.8     1159
   39.82     958
   39.84     777
   39.86     637
   39.88     595
   39.9     518
   39.92     437
   39.94     407
   39.96     399
   39.98     367
   40     324
   40.02     334
   40.04     297
   40.06     337
   40.08     325
   40.1     292
   40.12     309
   40.14     257
   40.16     270
   40.18     283
   40.2     256
   40.22     312
   40.24     288
   40.26     278
   40.28     267
   40.3     308
   40.32     307
   40.34     299
   40.36     290
   40.38     281
   40.4     268
   40.42     315
   40.44     319
   40.46     350
   40.48     368
   40.5     358
   40.52     356
   40.54     400
   40.56     369
   40.58     417
   40.6     419
   40.62     465
   40.64     479
   40.66     569
   40.68     584
   40.7     607
   40.72     715
   40.74     792
   40.76     837
   40.78     1048
   40.8     1176
   40.82     1357
   40.84     1715
   40.86     2123
   40.88     2696
   40.9     3484
   40.92     4489
   40.94     5720
   40.96     6582
   40.98     6443
   41     5388
   41.02     4447
   41.04     4146
   41.06     4066
   41.08     3909
   41.1     3206
   41.12     2308
   41.14     1772
   41.16     1409
   41.18     1185
   41.2     991
   41.22     862
   41.24     797
   41.26     747
   41.28     688
   41.3     650
   41.32     576
   41.34     575
   41.36     550
   41.38     501
   41.4     555
   41.42     504
   41.44     449
   41.46     456
   41.48     463
   41.5     516
   41.52     534
   41.54     499
   41.56     501
   41.58     482
   41.6     519
   41.62     502
   41.64     544
   41.66     581
   41.68     574
   41.7     593
   41.72     628
   41.74     639
   41.76     700
   41.78     658
   41.8     695
   41.82     756
   41.84     779
   41.86     876
   41.88     931
   41.9     1082
   41.92     1188
   41.94     1402
   41.96     1555
   41.98     1799
   42     2141
   42.02     2581
   42.04     3226
   42.06     4264
   42.08     5150
   42.1     6698
   42.12     8333
   42.14     9659
   42.16     9766
   42.18     8943
   42.2     7484
   42.22     6821
   42.24     6491
   42.26     6158
   42.28     5399
   42.3     4438
   42.32     3367
   42.34     2571
   42.36     2012
   42.38     1725
   42.4     1487
   42.42     1252
   42.44     1034
   42.46     1013
   42.48     917
   42.5     800
   42.52     676
   42.54     673
   42.56     626
   42.58     610
   42.6     537
   42.62     489
   42.64     466
   42.66     416
   42.68     418
   42.7     408
   42.72     389
   42.74     364
   42.76     347
   42.78     333
   42.8     287
   42.82     306
   42.84     342
   42.86     285
   42.88     275
   42.9     245
   42.92     284
   42.94     256
   42.96     234
   42.98     226
   43     248
   43.02     243
   43.04     257
   43.06     216
   43.08     212
   43.1     212
   43.12     223
   43.14     216
   43.16     219
   43.18     179
   43.2     208
   43.22     204
   43.24     189
   43.26     217
   43.28     198
   43.3     201
   43.32     203
   43.34     214
   43.36     193
   43.38     187
   43.4     187
   43.42     186
   43.44     185
   43.46     189
   43.48     190
   43.5     179
   43.52     211
   43.54     189
   43.56     185
   43.58     192
   43.6     192
   43.62     205
   43.64     188
   43.66     200
   43.68     197
   43.7     172
   43.72     162
   43.74     189
   43.76     209
   43.78     185
   43.8     212
   43.82     188
   43.84     187
   43.86     200
   43.88     197
   43.9     230
   43.92     210
   43.94     195
   43.96     203
   43.98     184
   44     208
   44.02     191
   44.04     184
   44.06     210
   44.08     202
   44.1     183
   44.12     209
   44.14     204
   44.16     173
   44.18     210
   44.2     202
   44.22     220
   44.24     229
   44.26     221
   44.28     205
   44.3     208
   44.32     256
   44.34     217
   44.36     259
   44.38     227
   44.4     247
   44.42     274
   44.44     261
   44.46     293
   44.48     320
   44.5     367
   44.52     362
   44.54     386
   44.56     479
   44.58     507
   44.6     568
   44.62     615
   44.64     630
   44.66     744
   44.68     801
   44.7     788
   44.72     787
   44.74     763
   44.76     645
   44.78     585
   44.8     567
   44.82     553
   44.84     510
   44.86     465
   44.88     405
   44.9     385
   44.92     307
   44.94     294
   44.96     260
   44.98     323
   45     276
   45.02     266
   45.04     272
   45.06     244
   45.08     246
   45.1     257
   45.12     282
   45.14     278
   45.16     288
   45.18     313
   45.2     299
   45.22     282
   45.24     313
   45.26     323
   45.28     343
   45.3     397
   45.32     419
   45.34     456
   45.36     448
   45.38     510
   45.4     613
   45.42     608
   45.44     713
   45.46     892
   45.48     1058
   45.5     1370
   45.52     1814
   45.54     2150
   45.56     2462
   45.58     2486
   45.6     2230
   45.62     1924
   45.64     1676
   45.66     1618
   45.68     1563
   45.7     1536
   45.72     1369
   45.74     1126
   45.76     905
   45.78     817
   45.8     685
   45.82     665
   45.84     624
   45.86     608
   45.88     546
   45.9     559
   45.92     506
   45.94     514
   45.96     474
   45.98     428
   46     424
   46.02     425
   46.04     423
   46.06     410
   46.08     374
   46.1     341
   46.12     363
   46.14     332
   46.16     357
   46.18     339
   46.2     317
   46.22     342
   46.24     312
   46.26     310
   46.28     294
   46.3     300
   46.32     314
   46.34     312
   46.36     299
   46.38     331
   46.4     301
   46.42     384
   46.44     378
   46.46     387
   46.48     337
   46.5     372
   46.52     343
   46.54     378
   46.56     400
   46.58     422
   46.6     409
   46.62     406
   46.64     380
   46.66     428
   46.68     427
   46.7     422
   46.72     458
   46.74     450
   46.76     524
   46.78     496
   46.8     530
   46.82     578
   46.84     680
   46.86     698
   46.88     736
   46.9     835
   46.92     921
   46.94     1051
   46.96     1262
   46.98     1417
   47     1688
   47.02     1981
   47.04     2495
   47.06     3128
   47.08     4117
   47.1     5201
   47.12     6225
   47.14     7111
   47.16     6880
   47.18     5975
   47.2     4895
   47.22     4568
   47.24     4446
   47.26     4472
   47.28     4079
   47.3     3505
   47.32     2712
   47.34     2013
   47.36     1573
   47.38     1380
   47.4     1200
   47.42     965
   47.44     886
   47.46     801
   47.48     722
   47.5     643
   47.52     564
   47.54     530
   47.56     477
   47.58     495
   47.6     447
   47.62     406
   47.64     384
   47.66     352
   47.68     333
   47.7     345
   47.72     309
   47.74     308
   47.76     308
   47.78     270
   47.8     284
   47.82     274
   47.84     268
   47.86     263
   47.88     235
   47.9     235
   47.92     239
   47.94     248
   47.96     236
   47.98     222
   48     231
   48.02     189
   48.04     219
   48.06     178
   48.08     207
   48.1     203
   48.12     196
   48.14     203
   48.16     176
   48.18     185
   48.2     164
   48.22     201
   48.24     167
   48.26     185
   48.28     212
   48.3     177
   48.32     158
   48.34     190
   48.36     188
   48.38     159
   48.4     197
   48.42     171
   48.44     169
   48.46     168
   48.48     160
   48.5     170
   48.52     156
   48.54     169
   48.56     187
   48.58     151
   48.6     176
   48.62     165
   48.64     167
   48.66     165
   48.68     206
   48.7     182
   48.72     168
   48.74     177
   48.76     166
   48.78     193
   48.8     166
   48.82     195
   48.84     180
   48.86     186
   48.88     175
   48.9     188
   48.92     167
   48.94     189
   48.96     179
   48.98     150
   49     196
   49.02     182
   49.04     202
   49.06     170
   49.08     203
   49.1     195
   49.12     201
   49.14     188
   49.16     196
   49.18     177
   49.2     223
   49.22     221
   49.24     250
   49.26     238
   49.28     240
   49.3     229
   49.32     271
   49.34     283
   49.36     296
   49.38     324
   49.4     332
   49.42     357
   49.44     390
   49.46     428
   49.48     486
   49.5     575
   49.52     649
   49.54     787
   49.56     901
   49.58     1095
   49.6     1476
   49.62     1652
   49.64     1798
   49.66     1714
   49.68     1448
   49.7     1229
   49.72     1100
   49.74     1161
   49.76     1227
   49.78     1111
   49.8     948
   49.82     821
   49.84     661
   49.86     569
   49.88     497
   49.9     467
   49.92     429
   49.94     380
   49.96     423
   49.98     395
   50     420
   50.02     403
   50.04     379
   50.06     458
   50.08     476
   50.1     496
   50.12     568
   50.14     582
   50.16     627
   50.18     728
   50.2     828
   50.22     1012
   50.24     1232
   50.26     1547
   50.28     1784
   50.3     1809
   50.32     1700
   50.34     1438
   50.36     1268
   50.38     1191
   50.4     1165
   50.42     1186
   50.44     1068
   50.46     1020
   50.48     841
   50.5     685
   50.52     594
   50.54     432
   50.56     408
   50.58     367
   50.6     335
   50.62     326
   50.64     317
   50.66     259
   50.68     236
   50.7     239
   50.72     228
   50.74     221
   50.76     206
   50.78     202
   50.8     192
   50.82     160
   50.84     196
   50.86     182
   50.88     180
   50.9     141
   50.92     149
   50.94     160
   50.96     166
   50.98     164
   51     171
   51.02     160
   51.04     156
   51.06     140
   51.08     177
   51.1     164
   51.12     153
   51.14     149
   51.16     157
   51.18     128
   51.2     172
   51.22     149
   51.24     139
   51.26     127
   51.28     153
   51.3     137
   51.32     139
   51.34     148
   51.36     143
   51.38     140
   51.4     135
   51.42     117
   51.44     125
   51.46     125
   51.48     134
   51.5     143
   51.52     135
   51.54     146
   51.56     119
   51.58     123
   51.6     118
   51.62     152
   51.64     124
   51.66     120
   51.68     129
   51.7     137
   51.72     127
   51.74     126
   51.76     147
   51.78     120
   51.8     130
   51.82     146
   51.84     124
   51.86     133
   51.88     139
   51.9     138
   51.92     114
   51.94     125
   51.96     125
   51.98     127
   52     122
   52.02     111
   52.04     153
   52.06     121
   52.08     111
   52.1     127
   52.12     116
   52.14     143
   52.16     127
   52.18     138
   52.2     100
   52.22     129
   52.24     127
   52.26     136
   52.28     123
   52.3     125
   52.32     143
   52.34     132
   52.36     123
   52.38     145
   52.4     106
   52.42     122
   52.44     134
   52.46     122
   52.48     117
   52.5     135
   52.52     130
   52.54     146
   52.56     120
   52.58     115
   52.6     120
   52.62     145
   52.64     133
   52.66     121
   52.68     110
   52.7     126
   52.72     147
   52.74     135
   52.76     145
   52.78     111
   52.8     121
   52.82     123
   52.84     142
   52.86     125
   52.88     123
   52.9     119
   52.92     117
   52.94     138
   52.96     115
   52.98     148
   53     136
   53.02     133
   53.04     137
   53.06     128
   53.08     119
   53.1     124
   53.12     138
   53.14     116
   53.16     126
   53.18     157
   53.2     141
   53.22     122
   53.24     141
   53.26     145
   53.28     130
   53.3     129
   53.32     125
   53.34     149
   53.36     134
   53.38     152
   53.4     129
   53.42     125
   53.44     136
   53.46     154
   53.48     147
   53.5     140
   53.52     140
   53.54     147
   53.56     155
   53.58     143
   53.6     161
   53.62     164
   53.64     129
   53.66     157
   53.68     157
   53.7     159
   53.72     182
   53.74     179
   53.76     191
   53.78     215
   53.8     219
   53.82     247
   53.84     240
   53.86     275
   53.88     292
   53.9     296
   53.92     355
   53.94     356
   53.96     392
   53.98     496
   54     592
   54.02     715
   54.04     866
   54.06     1089
   54.08     1362
   54.1     1415
   54.12     1307
   54.14     1149
   54.16     967
   54.18     815
   54.2     843
   54.22     881
   54.24     909
   54.26     784
   54.28     725
   54.3     560
   54.32     444
   54.34     393
   54.36     292
   54.38     292
   54.4     254
   54.42     261
   54.44     214
   54.46     204
   54.48     211
   54.5     178
   54.52     183
   54.54     145
   54.56     180
   54.58     156
   54.6     176
   54.62     155
   54.64     149
   54.66     176
   54.68     179
   54.7     136
   54.72     167
   54.74     136
   54.76     170
   54.78     130
   54.8     163
   54.82     151
   54.84     148
   54.86     143
   54.88     126
   54.9     146
   54.92     144
   54.94     139
   54.96     145
   54.98     141
   55     120
   55.02     137
   55.04     134
   55.06     145
   55.08     122
   55.1     137
   55.12     119
   55.14     129
   55.16     125
   55.18     132
   55.2     124
   55.22     131
   55.24     125
   55.26     139
   55.28     129
   55.3     128
   55.32     142
   55.34     143
   55.36     119
   55.38     144
   55.4     129
   55.42     142
   55.44     139
   55.46     117
   55.48     119
   55.5     134
   55.52     150
   55.54     122
   55.56     146
   55.58     114
   55.6     122
   55.62     159
   55.64     122
   55.66     149
   55.68     146
   55.7     126
   55.72     132
   55.74     147
   55.76     124
   55.78     119
   55.8     140
   55.82     139
   55.84     118
   55.86     131
   55.88     121
   55.9     132
   55.92     145
   55.94     125
   55.96     143
   55.98     131
   56     112
   56.02     119
   56.04     136
   56.06     152
   56.08     128
   56.1     129
   56.12     141
   56.14     123
   56.16     134
   56.18     123
   56.2     137
   56.22     136
   56.24     135
   56.26     128
   56.28     131
   56.3     140
   56.32     128
   56.34     147
   56.36     124
   56.38     129
   56.4     129
   56.42     135
   56.44     146
   56.46     140
   56.48     125
   56.5     122
   56.52     115
   56.54     145
   56.56     127
   56.58     147
   56.6     112
   56.62     140
   56.64     149
   56.66     129
   56.68     106
   56.7     122
   56.72     147
   56.74     125
   56.76     110
   56.78     142
   56.8     140
   56.82     130
   56.84     123
   56.86     160
   56.88     102
   56.9     124
   56.92     107
   56.94     137
   56.96     141
   56.98     132
   57     110
   57.02     140
   57.04     125
   57.06     106
   57.08     120
   57.1     118
   57.12     125
   57.14     151
   57.16     116
   57.18     133
   57.2     122
   57.22     126
   57.24     109
   57.26     125
   57.28     108
   57.3     116
   57.32     117
   57.34     114
   57.36     124
   57.38     116
   57.4     124
   57.42     119
   57.44     125
   57.46     132
   57.48     127
   57.5     115
   57.52     109
   57.54     122
   57.56     103
   57.58     121
   57.6     121
   57.62     142
   57.64     130
   57.66     126
   57.68     114
   57.7     106
   57.72     101
   57.74     122
   57.76     106
   57.78     117
   57.8     119
   57.82     126
   57.84     127
   57.86     136
   57.88     123
   57.9     148
   57.92     119
   57.94     143
   57.96     140
   57.98     122
   58     122
   58.02     130
   58.04     113
   58.06     140
   58.08     131
   58.1     134
   58.12     136
   58.14     127
   58.16     121
   58.18     125
   58.2     116
   58.22     121
   58.24     104
   58.26     127
   58.28     147
   58.3     128
   58.32     141
   58.34     124
   58.36     122
   58.38     113
   58.4     129
   58.42     134
   58.44     123
   58.46     140
   58.48     134
   58.5     145
   58.52     128
   58.54     140
   58.56     144
   58.58     170
   58.6     151
   58.62     167
   58.64     176
   58.66     159
   58.68     183
   58.7     209
   58.72     198
   58.74     197
   58.76     237
   58.78     238
   58.8     284
   58.82     299
   58.84     365
   58.86     355
   58.88     445
   58.9     447
   58.92     484
   58.94     415
   58.96     431
   58.98     368
   59     370
   59.02     349
   59.04     328
   59.06     375
   59.08     362
   59.1     331
   59.12     319
   59.14     231
   59.16     211
   59.18     231
   59.2     182
   59.22     165
   59.24     189
   59.26     173
   59.28     174
   59.3     165
   59.32     153
   59.34     177
   59.36     143
   59.38     144
   59.4     164
   59.42     151
   59.44     131
   59.46     124
   59.48     125
   59.5     173
   59.52     154
   59.54     166
   59.56     170
   59.58     152
   59.6     154
   59.62     135
   59.64     133
   59.66     144
   59.68     158
   59.7     133
   59.72     144
   59.74     115
   59.76     143
   59.78     123
   59.8     133
   59.82     139
   59.84     139
   59.86     125
   59.88     126
   59.9     120
   59.92     117
   59.94     120
   59.96     135
   59.98     145
   60     143
   60.02     124
   60.04     116
   60.06     110
   60.08     92
   60.1     129
   60.12     139
   60.14     123
   60.16     132
   60.18     131
   60.2     123
   60.22     142
   60.24     125
   60.26     145
   60.28     141
   60.3     123
   60.32     136
   60.34     126
   60.36     121
   60.38     131
   60.4     121
   60.42     127
   60.44     123
   60.46     130
   60.48     128
   60.5     139
   60.52     141
   60.54     141
   60.56     111
   60.58     122
   60.6     126
   60.62     145
   60.64     124
   60.66     134
   60.68     117
   60.7     117
   60.72     120
   60.74     121
   60.76     113
   60.78     107
   60.8     119
   60.82     139
   60.84     145
   60.86     131
   60.88     153
   60.9     135
   60.92     132
   60.94     130
   60.96     131
   60.98     153
   61     142
   61.02     143
   61.04     142
   61.06     140
   61.08     108
   61.1     139
   61.12     159
   61.14     138
   61.16     141
   61.18     136
   61.2     113
   61.22     126
   61.24     125
   61.26     146
   61.28     113
   61.3     110
   61.32     152
   61.34     123
   61.36     107
   61.38     139
   61.4     117
   61.42     122
   61.44     141
   61.46     147
   61.48     136
   61.5     150
   61.52     130
   61.54     122
   61.56     137
   61.58     132
   61.6     131
   61.62     130
   61.64     126
   61.66     130
   61.68     153
   61.7     156
   61.72     145
   61.74     155
   61.76     129
   61.78     139
   61.8     155
   61.82     150
   61.84     142
   61.86     141
   61.88     163
   61.9     149
   61.92     157
   61.94     168
   61.96     172
   61.98     159
   62     180
   62.02     163
   62.04     138
   62.06     153
   62.08     158
   62.1     161
   62.12     153
   62.14     155
   62.16     161
   62.18     150
   62.2     138
   62.22     166
   62.24     159
   62.26     127
   62.28     124
   62.3     171
   62.32     121
   62.34     146
   62.36     161
   62.38     137
   62.4     151
   62.42     142
   62.44     149
   62.46     148
   62.48     166
   62.5     171
   62.52     157
   62.54     157
   62.56     156
   62.58     174
   62.6     149
   62.62     191
   62.64     168
   62.66     197
   62.68     195
   62.7     218
   62.72     191
   62.74     234
   62.76     229
   62.78     251
   62.8     229
   62.82     277
   62.84     314
   62.86     378
   62.88     397
   62.9     436
   62.92     451
   62.94     466
   62.96     454
   62.98     424
   63     420
   63.02     411
   63.04     399
   63.06     424
   63.08     437
   63.1     494
   63.12     444
   63.14     468
   63.16     480
   63.18     521
   63.2     557
   63.22     632
   63.24     743
   63.26     847
   63.28     1224
   63.3     1412
   63.32     1551
   63.34     1466
   63.36     1333
   63.38     968
   63.4     854
   63.42     798
   63.44     809
   63.46     817
   63.48     917
   63.5     899
   63.52     825
   63.54     730
   63.56     561
   63.58     477
   63.6     422
   63.62     343
   63.64     326
   63.66     301
   63.68     258
   63.7     278
   63.72     246
   63.74     213
   63.76     246
   63.78     222
   63.8     204
   63.82     191
   63.84     221
   63.86     198
   63.88     182
   63.9     178
   63.92     168
   63.94     167
   63.96     178
   63.98     170
   64     194
   64.02     172
   64.04     166
   64.06     164
   64.08     171
   64.1     166
   64.12     145
   64.14     134
   64.16     140
   64.18     181
   64.2     144
   64.22     152
   64.24     149
   64.26     153
   64.28     157
   64.3     161
   64.32     156
   64.34     139
   64.36     163
   64.38     149
   64.4     142
   64.42     152
   64.44     126
   64.46     135
   64.48     139
   64.5     156
   64.52     159
   64.54     164
   64.56     147
   64.58     144
   64.6     148
   64.62     121
   64.64     135
   64.66     129
   64.68     128
   64.7     136
   64.72     127
   64.74     138
   64.76     155
   64.78     128
   64.8     131
   64.82     150
   64.84     117
   64.86     126
   64.88     143
   64.9     142
   64.92     150
   64.94     146
   64.96     125
   64.98     147
   65     136
   65.02     139
   65.04     129
   65.06     142
   65.08     129
   65.1     135
   65.12     141
   65.14     134
   65.16     142
   65.18     109
   65.2     143
   65.22     140
   65.24     147
   65.26     146
   65.28     125
   65.3     162
   65.32     156
   65.34     150
   65.36     158
   65.38     159
   65.4     159
   65.42     181
   65.44     144
   65.46     130
   65.48     158
   65.5     149
   65.52     156
   65.54     156
   65.56     167
   65.58     155
   65.6     159
   65.62     185
   65.64     152
   65.66     149
   65.68     178
   65.7     202
   65.72     175
   65.74     196
   65.76     190
   65.78     191
   65.8     217
   65.82     225
   65.84     242
   65.86     234
   65.88     230
   65.9     236
   65.92     249
   65.94     277
   65.96     283
   65.98     326
   66     348
   66.02     347
   66.04     371
   66.06     403
   66.08     432
   66.1     461
   66.12     551
   66.14     590
   66.16     634
   66.18     784
   66.2     906
   66.22     1093
   66.24     1162
   66.26     1185
   66.28     1075
   66.3     930
   66.32     873
   66.34     757
   66.36     695
   66.38     703
   66.4     729
   66.42     741
   66.44     759
   66.46     703
   66.48     591
   66.5     553
   66.52     471
   66.54     409
   66.56     364
   66.58     320
   66.6     292
   66.62     285
   66.64     283
   66.66     258
   66.68     266
   66.7     232
   66.72     213
   66.74     232
   66.76     225
   66.78     194
   66.8     208
   66.82     199
   66.84     171
   66.86     184
   66.88     200
   66.9     196
   66.92     173
   66.94     170
   66.96     162
   66.98     180
   67     178
   67.02     176
   67.04     177
   67.06     159
   67.08     176
   67.1     154
   67.12     163
   67.14     162
   67.16     183
   67.18     180
   67.2     171
   67.22     164
   67.24     172
   67.26     175
   67.28     190
   67.3     162
   67.32     175
   67.34     173
   67.36     181
   67.38     176
   67.4     183
   67.42     202
   67.44     203
   67.46     186
   67.48     191
   67.5     201
   67.52     204
   67.54     215
   67.56     238
   67.58     228
   67.6     223
   67.62     274
   67.64     266
   67.66     245
   67.68     249
   67.7     284
   67.72     298
   67.74     300
   67.76     331
   67.78     359
   67.8     349
   67.82     415
   67.84     453
   67.86     470
   67.88     519
   67.9     615
   67.92     677
   67.94     872
   67.96     1125
   67.98     1346
   68     1731
   68.02     2069
   68.04     2162
   68.06     2038
   68.08     1641
   68.1     1347
   68.12     1128
   68.14     1056
   68.16     1010
   68.18     1051
   68.2     1207
   68.22     1352
   68.24     1283
   68.26     1103
   68.28     910
   68.3     784
   68.32     599
   68.34     523
   68.36     470
   68.38     381
   68.4     393
   68.42     344
   68.44     278
   68.46     274
   68.48     267
   68.5     252
   68.52     257
   68.54     254
   68.56     237
   68.58     210
   68.6     209
   68.62     211
   68.64     204
   68.66     218
   68.68     177
   68.7     180
   68.72     191
   68.74     164
   68.76     193
   68.78     182
   68.8     192
   68.82     153
   68.84     155
   68.86     165
   68.88     162
   68.9     161
   68.92     155
   68.94     163
   68.96     143
   68.98     163
   69     144
   69.02     175
   69.04     139
   69.06     155
   69.08     137
   69.1     175
   69.12     143
   69.14     137
   69.16     148
   69.18     152
   69.2     166
   69.22     135
   69.24     125
   69.26     165
   69.28     150
   69.3     144
   69.32     146
   69.34     132
   69.36     161
   69.38     119
   69.4     137
   69.42     131
   69.44     135
   69.46     108
   69.48     145
   69.5     133
   69.52     138
   69.54     149
   69.56     142
   69.58     145
   69.6     145
   69.62     144
   69.64     146
   69.66     149
   69.68     147
   69.7     161
   69.72     135
   69.74     142
   69.76     124
   69.78     150
   69.8     144
   69.82     132
   69.84     147
   69.86     126
   69.88     147
   69.9     140
   69.92     148
   69.94     142
   69.96     119
   69.98     106
   70     150
   70.02     108
   70.04     130
   70.06     153
   70.08     125
   70.1     132
   70.12     137
   70.14     102
   70.16     116
   70.18     122
   70.2     147
   70.22     124
   70.24     126
   70.26     116
   70.28     119
   70.3     107
   70.32     130
   70.34     127
   70.36     147
   70.38     119
   70.4     109
   70.42     107
   70.44     113
   70.46     129
   70.48     114
   70.5     121
   70.52     132
   70.54     131
   70.56     123
   70.58     120
   70.6     129
   70.62     127
   70.64     130
   70.66     127
   70.68     119
   70.7     143
   70.72     129
   70.74     118
   70.76     142
   70.78     117
   70.8     109
   70.82     126
   70.84     140
   70.86     148
   70.88     125
   70.9     126
   70.92     126
   70.94     144
   70.96     157
   70.98     174
   71     167
   71.02     175
   71.04     180
   71.06     154
   71.08     154
   71.1     151
   71.12     174
   71.14     158
   71.16     139
   71.18     145
   71.2     143
   71.22     141
   71.24     152
   71.26     142
   71.28     145
   71.3     147
   71.32     122
   71.34     154
   71.36     134
   71.38     133
   71.4     136
   71.42     118
   71.44     145
   71.46     117
   71.48     119
   71.5     125
   71.52     157
   71.54     115
   71.56     123
   71.58     126
   71.6     113
   71.62     125
   71.64     137
   71.66     133
   71.68     117
   71.7     139
   71.72     127
   71.74     107
   71.76     129
   71.78     109
   71.8     129
   71.82     123
   71.84     108
   71.86     119
   71.88     128
   71.9     140
   71.92     154
   71.94     109
   71.96     120
   71.98     124
   72     136
   72.02     156
   72.04     126
   72.06     133
   72.08     134
   72.1     132
   72.12     132
   72.14     125
   72.16     130
   72.18     126
   72.2     148
   72.22     144
   72.24     115
   72.26     125
   72.28     143
   72.3     146
   72.32     115
   72.34     145
   72.36     137
   72.38     121
   72.4     135
   72.42     138
   72.44     120
   72.46     149
   72.48     111
   72.5     141
   72.52     135
   72.54     124
   72.56     142
   72.58     133
   72.6     124
   72.62     125
   72.64     162
   72.66     138
   72.68     167
   72.7     149
   72.72     143
   72.74     142
   72.76     147
   72.78     148
   72.8     141
   72.82     155
   72.84     146
   72.86     167
   72.88     156
   72.9     140
   72.92     156
   72.94     155
   72.96     159
   72.98     168
   73     143
   73.02     160
   73.04     188
   73.06     159
   73.08     175
   73.1     169
   73.12     165
   73.14     185
   73.16     169
   73.18     189
   73.2     173
   73.22     183
   73.24     178
   73.26     181
   73.28     204
   73.3     200
   73.32     165
   73.34     214
   73.36     195
   73.38     264
   73.4     217
   73.42     210
   73.44     243
   73.46     222
   73.48     224
   73.5     240
   73.52     281
   73.54     260
   73.56     286
   73.58     294
   73.6     319
   73.62     365
   73.64     409
   73.66     383
   73.68     436
   73.7     544
   73.72     588
   73.74     564
   73.76     509
   73.78     462
   73.8     441
   73.82     404
   73.84     425
   73.86     410
   73.88     436
   73.9     485
   73.92     494
   73.94     469
   73.96     467
   73.98     449
   74     457
   74.02     457
   74.04     484
   74.06     445
   74.08     529
   74.1     488
   74.12     594
   74.14     605
   74.16     691
   74.18     765
   74.2     835
   74.22     894
   74.24     1022
   74.26     991
   74.28     1037
   74.3     901
   74.32     841
   74.34     837
   74.36     831
   74.38     870
   74.4     948
   74.42     997
   74.44     1150
   74.46     1122
   74.48     1149
   74.5     1264
   74.52     1404
   74.54     1597
   74.56     1801
   74.58     2025
   74.6     2175
   74.62     2214
   74.64     2076
   74.66     1949
   74.68     1717
   74.7     1565
   74.72     1479
   74.74     1356
   74.76     1318
   74.78     1320
   74.8     1400
   74.82     1326
   74.84     1340
   74.86     1278
   74.88     1164
   74.9     977
   74.92     874
   74.94     792
   74.96     725
   74.98     600
   75     533
   75.02     508
   75.04     478
   75.06     407
   75.08     376
   75.1     414
   75.12     353
   75.14     345
   75.16     308
   75.18     309
   75.2     290
   75.22     261
   75.24     281
   75.26     264
   75.28     249
   75.3     235
   75.32     225
   75.34     255
   75.36     212
   75.38     210
   75.4     212
   75.42     212
   75.44     210
   75.46     191
   75.48     231
   75.5     217
   75.52     213
   75.54     216
   75.56     218
   75.58     206
   75.6     196
   75.62     201
   75.64     181
   75.66     189
   75.68     201
   75.7     179
   75.72     201
   75.74     181
   75.76     175
   75.78     176
   75.8     221
   75.82     186
   75.84     174
   75.86     186
   75.88     195
   75.9     175
   75.92     155
   75.94     144
   75.96     152
   75.98     156
   76     152
   76.02     179
   76.04     145
   76.06     177
   76.08     166
   76.1     164
   76.12     150
   76.14     135
   76.16     159
   76.18     124
   76.2     148
   76.22     127
   76.24     158
   76.26     145
   76.28     150
   76.3     152
   76.32     110
   76.34     140
   76.36     143
   76.38     146
   76.4     138
   76.42     135
   76.44     139
   76.46     129
   76.48     131
   76.5     127
   76.52     116
   76.54     140
   76.56     147
   76.58     131
   76.6     138
   76.62     114
   76.64     109
   76.66     134
   76.68     130
   76.7     120
   76.72     137
   76.74     117
   76.76     136
   76.78     138
   76.8     129
   76.82     139
   76.84     145
   76.86     131
   76.88     130
   76.9     116
   76.92     166
   76.94     110
   76.96     124
   76.98     137
   77     143
   77.02     133
   77.04     130
   77.06     131
   77.08     158
   77.1     135
   77.12     134
   77.14     120
   77.16     144
   77.18     133
   77.2     150
   77.22     142
   77.24     118
   77.26     124
   77.28     143
   77.3     145
   77.32     122
   77.34     114
   77.36     130
   77.38     124
   77.4     141
   77.42     128
   77.44     125
   77.46     121
   77.48     139
   77.5     104
   77.52     130
   77.54     126
   77.56     140
   77.58     131
   77.6     114
   77.62     142
   77.64     128
   77.66     113
   77.68     147
   77.7     116
   77.72     119
   77.74     118
   77.76     95
   77.78     126
   77.8     123
   77.82     134
   77.84     124
   77.86     114
   77.88     130
   77.9     140
   77.92     102
   77.94     120
   77.96     112
   77.98     121
   78     131
   78.02     132
   78.04     114
   78.06     118
   78.08     118
   78.1     111
   78.12     122
   78.14     145
   78.16     128
   78.18     105
   78.2     132
   78.22     104
   78.24     129
   78.26     135
   78.28     149
   78.3     97
   78.32     132
   78.34     148
   78.36     141
   78.38     135
   78.4     119
   78.42     102
   78.44     145
   78.46     131
   78.48     127
   78.5     124
   78.52     129
   78.54     109
   78.56     139
   78.58     108
   78.6     127
   78.62     116
   78.64     132
   78.66     123
   78.68     126
   78.7     132
   78.72     135
   78.74     123
   78.76     137
   78.78     114
   78.8     127
   78.82     133
   78.84     118
   78.86     130
   78.88     137
   78.9     120
   78.92     146
   78.94     155
   78.96     131
   78.98     152
   79     156
   79.02     161
   79.04     148
   79.06     124
   79.08     146
   79.1     127
   79.12     131
   79.14     138
   79.16     141
   79.18     117
   79.2     140
   79.22     142
   79.24     140
   79.26     134
   79.28     140
   79.3     130
   79.32     141
   79.34     136
   79.36     147
   79.38     135
   79.4     147
   79.42     125
   79.44     129
   79.46     138
   79.48     149
   79.5     142
   79.52     130
   79.54     136
   79.56     140
   79.58     117
   79.6     118
   79.62     125
   79.64     127
   79.66     137
   79.68     142
   79.7     149
   79.72     143
   79.74     136
   79.76     132
   79.78     130
   79.8     131
   79.82     112
   79.84     128
   79.86     163
   79.88     132
   79.9     131
   79.92     148
   79.94     144
   79.96     134
   79.98     127
   80     151
   80.02     125
   80.04     147
   80.06     142
   80.08     138
   80.1     127
   80.12     164
   80.14     125
   80.16     100
   80.18     146
   80.2     150
   80.22     124
   80.24     128
   80.26     129
   80.28     141
   80.3     134
   80.32     148
   80.34     139
   80.36     119
   80.38     151
   80.4     129
   80.42     122
   80.44     156
   80.46     139
   80.48     144
   80.5     151
   80.52     146
   80.54     132
   80.56     136
   80.58     132
   80.6     177
   80.62     166
   80.64     164
   80.66     170
   80.68     150
   80.7     159
   80.72     147
   80.74     143
   80.76     148
   80.78     139
   80.8     160
   80.82     162
   80.84     146
   80.86     149
   80.88     179
   80.9     180
   80.92     144
   80.94     157
   80.96     180
   80.98     173
   81     178
   81.02     178
   81.04     164
   81.06     174
   81.08     189
   81.1     199
   81.12     200
   81.14     190
   81.16     198
   81.18     199
   81.2     243
   81.22     240
   81.24     230
   81.26     245
   81.28     231
   81.3     267
   81.32     301
   81.34     315
   81.36     311
   81.38     319
   81.4     369
   81.42     385
   81.44     346
   81.46     353
   81.48     376
   81.5     363
   81.52     369
   81.54     416
   81.56     394
   81.58     407
   81.6     396
   81.62     472
   81.64     484
   81.66     512
   81.68     542
   81.7     596
   81.72     661
   81.74     688
   81.76     763
   81.78     818
   81.8     940
   81.82     1051
   81.84     1177
   81.86     1203
   81.88     1261
   81.9     1225
   81.92     1142
   81.94     1096
   81.96     973
   81.98     918
   82     836
   82.02     844
   82.04     837
   82.06     812
   82.08     840
   82.1     868
   82.12     819
   82.14     741
   82.16     750
   82.18     635
   82.2     583
   82.22     552
   82.24     469
   82.26     442
   82.28     388
   82.3     345
   82.32     369
   82.34     315
   82.36     298
   82.38     302
   82.4     288
   82.42     234
   82.44     249
   82.46     245
   82.48     228
   82.5     253
   82.52     218
   82.54     210
   82.56     214
   82.58     226
   82.6     199
   82.62     205
   82.64     200
   82.66     174
   82.68     200
   82.7     195
   82.72     180
   82.74     179
   82.76     171
   82.78     185
   82.8     196
   82.82     179
   82.84     196
   82.86     205
   82.88     158
   82.9     153
   82.92     165
   82.94     173
   82.96     159
   82.98     167
   83     160
   83.02     161
   83.04     165
   83.06     152
   83.08     146
   83.1     164
   83.12     161
   83.14     160
   83.16     136
   83.18     147
   83.2     135
   83.22     138
   83.24     131
   83.26     147
   83.28     155
   83.3     138
   83.32     159
   83.34     156
   83.36     125
   83.38     130
   83.4     164
   83.42     120
   83.44     147
   83.46     159
   83.48     145
   83.5     141
   83.52     138
   83.54     161
   83.56     142
   83.58     156
   83.6     157
   83.62     140
   83.64     136
   83.66     167
   83.68     148
   83.7     156
   83.72     155
   83.74     156
   83.76     195
   83.78     189
   83.8     144
   83.82     158
   83.84     147
   83.86     143
   83.88     165
   83.9     186
   83.92     161
   83.94     181
   83.96     196
   83.98     197
   84     200
   84.02     183
   84.04     183
   84.06     248
   84.08     210
   84.1     215
   84.12     200
   84.14     211
   84.16     227
   84.18     212
   84.2     212
   84.22     211
   84.24     229
   84.26     217
   84.28     204
   84.3     261
   84.32     244
   84.34     249
   84.36     276
   84.38     271
   84.4     284
   84.42     282
   84.44     326
   84.46     380
   84.48     301
   84.5     291
   84.52     282
   84.54     262
   84.56     250
   84.58     259
   84.6     272
   84.62     256
   84.64     213
   84.66     226
   84.68     234
   84.7     253
   84.72     234
   84.74     248
   84.76     263
   84.78     210
   84.8     217
   84.82     212
   84.84     201
   84.86     199
   84.88     181
   84.9     196
   84.92     187
   84.94     206
   84.96     202
   84.98     172
   85     173
   85.02     213
   85.04     176
   85.06     184
   85.08     163
   85.1     172
   85.12     169
   85.14     184
   85.16     197
   85.18     203
   85.2     157
   85.22     207
   85.24     196
   85.26     196
   85.28     198
   85.3     230
   85.32     239
   85.34     248
   85.36     263
   85.38     263
   85.4     297
   85.42     252
   85.44     249
   85.46     236
   85.48     251
   85.5     212
   85.52     231
   85.54     201
   85.56     217
   85.58     232
   85.6     202
   85.62     214
   85.64     211
   85.66     185
   85.68     199
   85.7     190
   85.72     205
   85.74     206
   85.76     194
   85.78     156
   85.8     171
   85.82     159
   85.84     174
   85.86     190
   85.88     151
   85.9     148
   85.92     138
   85.94     145
   85.96     133
   85.98     139
   86     129
   86.02     144
   86.04     130
   86.06     121
   86.08     139
   86.1     151
   86.12     140
   86.14     143
   86.16     125
   86.18     137
   86.2     142
   86.22     128
   86.24     162
   86.26     126
   86.28     130
   86.3     151
   86.32     128
   86.34     146
   86.36     139
   86.38     130
   86.4     109
   86.42     137
   86.44     122
   86.46     123
   86.48     122
   86.5     151
   86.52     133
   86.54     130
   86.56     134
   86.58     135
   86.6     119
   86.62     134
   86.64     133
   86.66     145
   86.68     133
   86.7     137
   86.72     133
   86.74     146
   86.76     125
   86.78     111
   86.8     113
   86.82     143
   86.84     116
   86.86     125
   86.88     149
   86.9     134
   86.92     140
   86.94     148
   86.96     144
   86.98     148
   87     128
   87.02     138
   87.04     163
   87.06     136
   87.08     142
   87.1     161
   87.12     128
   87.14     125
   87.16     142
   87.18     154
   87.2     145
   87.22     140
   87.24     135
   87.26     128
   87.28     146
   87.3     144
   87.32     146
   87.34     144
   87.36     155
   87.38     126
   87.4     124
   87.42     156
   87.44     142
   87.46     130
   87.48     147
   87.5     167
   87.52     167
   87.54     165
   87.56     162
   87.58     203
   87.6     176
   87.62     171
   87.64     165
   87.66     185
   87.68     183
   87.7     169
   87.72     168
   87.74     225
   87.76     214
   87.78     210
   87.8     234
   87.82     240
   87.84     251
   87.86     279
   87.88     309
   87.9     346
   87.92     366
   87.94     384
   87.96     461
   87.98     465
   88     430
   88.02     386
   88.04     359
   88.06     347
   88.08     338
   88.1     296
   88.12     293
   88.14     316
   88.16     297
   88.18     306
   88.2     287
   88.22     321
   88.24     330
   88.26     322
   88.28     311
   88.3     290
   88.32     245
   88.34     266
   88.36     241
   88.38     263
   88.4     236
   88.42     202
   88.44     227
   88.46     174
   88.48     193
   88.5     184
   88.52     217
   88.54     205
   88.56     197
   88.58     201
   88.6     184
   88.62     217
   88.64     211
   88.66     237
   88.68     232
   88.7     242
   88.72     279
   88.74     285
   88.76     330
   88.78     368
   88.8     425
   88.82     445
   88.84     417
   88.86     401
   88.88     331
   88.9     334
   88.92     308
   88.94     287
   88.96     265
   88.98     267
   89     261
   89.02     243
   89.04     242
   89.06     266
   89.08     275
   89.1     298
   89.12     266
   89.14     255
   89.16     263
   89.18     241
   89.2     205
   89.22     189
   89.24     214
   89.26     171
   89.28     173
   89.3     176
   89.32     179
   89.34     178
   89.36     172
   89.38     172
   89.4     125
   89.42     151
   89.44     161
   89.46     164
   89.48     151
   89.5     161
   89.52     153
   89.54     162
   89.56     131
   89.58     137
   89.6     139
   89.62     134
   89.64     145
   89.66     140
   89.68     149
   89.7     139
   89.72     146
   89.74     150
   89.76     120
   89.78     165
   89.8     148
   89.82     122
   89.84     150
   89.86     123
   89.88     151
   89.9     149
   89.92     125
   89.94     135
   89.96     139
   89.98     121
   90     154
   90.02     128
   90.04     134
   90.06     141
   90.08     120
   90.1     145
   90.12     127
   90.14     129
   90.16     123
   90.18     131
   90.2     145
   90.22     144
   90.24     128
   90.26     160
   90.28     137
   90.3     156
   90.32     142
   90.34     136
   90.36     128
   90.38     127
   90.4     134
   90.42     147
   90.44     131
   90.46     139
   90.48     143
   90.5     133
   90.52     147
   90.54     138
   90.56     140
   90.58     168
   90.6     136
   90.62     149
   90.64     156
   90.66     144
   90.68     141
   90.7     149
   90.72     136
   90.74     148
   90.76     138
   90.78     168
   90.8     142
   90.82     147
   90.84     145
   90.86     152
   90.88     144
   90.9     138
   90.92     142
   90.94     150
   90.96     159
   90.98     157
   91     132
   91.02     161
   91.04     155
   91.06     163
   91.08     146
   91.1     171
   91.12     155
   91.14     181
   91.16     173
   91.18     178
   91.2     161
   91.22     168
   91.24     171
   91.26     164
   91.28     185
   91.3     176
   91.32     178
   91.34     191
   91.36     180
   91.38     185
   91.4     226
   91.42     191
   91.44     196
   91.46     215
   91.48     199
   91.5     214
   91.52     200
   91.54     212
   91.56     217
   91.58     239
   91.6     235
   91.62     226
   91.64     255
   91.66     252
   91.68     277
   91.7     301
   91.72     286
   91.74     314
   91.76     367
   91.78     400
   91.8     374
   91.82     426
   91.84     457
   91.86     555
   91.88     576
   91.9     640
   91.92     679
   91.94     818
   91.96     934
   91.98     946
   92     910
   92.02     943
   92.04     758
   92.06     758
   92.08     628
   92.1     588
   92.12     579
   92.14     524
   92.16     577
   92.18     561
   92.2     592
   92.22     557
   92.24     595
   92.26     632
   92.28     639
   92.3     662
   92.32     540
   92.34     531
   92.36     502
   92.38     432
   92.4     420
   92.42     383
   92.44     357
   92.46     325
   92.48     316
   92.5     289
   92.52     275
   92.54     274
   92.56     254
   92.58     269
   92.6     266
   92.62     257
   92.64     237
   92.66     218
   92.68     227
   92.7     267
   92.72     267
   92.74     245
   92.76     237
   92.78     230
   92.8     254
   92.82     242
   92.84     235
   92.86     255
   92.88     277
   92.9     283
   92.92     291
   92.94     276
   92.96     323
   92.98     334
   93     357
   93.02     358
   93.04     429
   93.06     421
   93.08     525
   93.1     534
   93.12     566
   93.14     595
   93.16     591
   93.18     515
   93.2     479
   93.22     465
   93.24     429
   93.26     378
   93.28     365
   93.3     379
   93.32     360
   93.34     353
   93.36     369
   93.38     401
   93.4     383
   93.42     419
   93.44     338
   93.46     391
   93.48     343
   93.5     363
   93.52     314
   93.54     260
   93.56     277
   93.58     265
   93.6     247
   93.62     237
   93.64     241
   93.66     210
   93.68     201
   93.7     222
   93.72     201
   93.74     189
   93.76     196
   93.78     176
   93.8     165
   93.82     158
   93.84     167
   93.86     157
   93.88     179
   93.9     165
   93.92     159
   93.94     167
   93.96     156
   93.98     170
   94     167
   94.02     154
   94.04     170
   94.06     162
   94.08     162
   94.1     152
   94.12     155
   94.14     140
   94.16     124
   94.18     146
   94.2     170
   94.22     134
   94.24     157
   94.26     143
   94.28     128
   94.3     144
   94.32     149
   94.34     132
   94.36     165
   94.38     143
   94.4     164
   94.42     120
   94.44     139
   94.46     142
   94.48     132
   94.5     148
   94.52     148
   94.54     158
   94.56     162
   94.58     151
   94.6     151
   94.62     148
   94.64     120
   94.66     120
   94.68     159
   94.7     144
   94.72     134
   94.74     140
   94.76     156
   94.78     137
   94.8     158
   94.82     160
   94.84     160
   94.86     174
   94.88     151
   94.9     151
   94.92     142
   94.94     162
   94.96     139
   94.98     161
   95     168
   95.02     168
   95.04     152
   95.06     160
   95.08     179
   95.1     174
   95.12     163
   95.14     169
   95.16     168
   95.18     151
   95.2     165
   95.22     152
   95.24     187
   95.26     191
   95.28     209
   95.3     197
   95.32     203
   95.34     238
   95.36     247
   95.38     243
   95.4     281
   95.42     318
   95.44     300
   95.46     345
   95.48     371
   95.5     397
   95.52     344
   95.54     380
   95.56     339
   95.58     318
   95.6     339
   95.62     296
   95.64     270
   95.66     321
   95.68     300
   95.7     285
   95.72     307
   95.74     276
   95.76     318
   95.78     327
   95.8     343
   95.82     369
   95.84     325
   95.86     365
   95.88     337
   95.9     347
   95.92     359
   95.94     335
   95.96     348
   95.98     295
   96     281
   96.02     277
   96.04     255
   96.06     233
   96.08     232
   96.1     217
   96.12     227
   96.14     240
   96.16     218
   96.18     207
   96.2     232
   96.22     257
   96.24     233
   96.26     217
   96.28     228
   96.3     187
   96.32     198
   96.34     160
   96.36     220
   96.38     193
   96.4     159
   96.42     152
   96.44     172
   96.46     154
   96.48     163
   96.5     151
   96.52     130
   96.54     170
   96.56     156
   96.58     141
   96.6     152
   96.62     162
   96.64     134
   96.66     124
   96.68     148
   96.7     149
   96.72     135
   96.74     156
   96.76     155
   96.78     131
   96.8     139
   96.82     120
   96.84     152
   96.86     142
   96.88     144
   96.9     144
   96.92     145
   96.94     118
   96.96     132
   96.98     158
   97     122
   97.02     115
   97.04     133
   97.06     134
   97.08     108
   97.1     130
   97.12     133
   97.14     125
   97.16     117
   97.18     117
   97.2     122
   97.22     145
   97.24     143
   97.26     138
   97.28     133
   97.3     117
   97.32     136
   97.34     131
   97.36     127
   97.38     121
   97.4     117
   97.42     133
   97.44     109
   97.46     126
   97.48     124
   97.5     118
   97.52     151
   97.54     130
   97.56     125
   97.58     147
   97.6     118
   97.62     140
   97.64     133
   97.66     146
   97.68     136
   97.7     117
   97.72     108
   97.74     132
   97.76     142
   97.78     113
   97.8     122
   97.82     120
   97.84     144
   97.86     134
   97.88     139
   97.9     127
   97.92     152
   97.94     122
   97.96     113
   97.98     148
   98     106
   98.02     123
   98.04     122
   98.06     140
   98.08     149
   98.1     158
   98.12     132
   98.14     153
   98.16     150
   98.18     150
   98.2     133
   98.22     136
   98.24     153
   98.26     128
   98.28     140
   98.3     141
   98.32     168
   98.34     152
   98.36     161
   98.38     163
   98.4     192
   98.42     196
   98.44     189
   98.46     208
   98.48     224
   98.5     236
   98.52     244
   98.54     248
   98.56     241
   98.58     235
   98.6     211
   98.62     196
   98.64     188
   98.66     194
   98.68     191
   98.7     167
   98.72     167
   98.74     176
   98.76     178
   98.78     186
   98.8     168
   98.82     186
   98.84     174
   98.86     202
   98.88     202
   98.9     175
   98.92     185
   98.94     181
   98.96     182
   98.98     149
   99     153
   99.02     142
   99.04     126
   99.06     139
   99.08     141
   99.1     125
   99.12     128
   99.14     123
   99.16     148
   99.18     132
   99.2     139
   99.22     119
   99.24     130
   99.26     118
   99.28     100
   99.3     147
   99.32     122
   99.34     123
   99.36     125
   99.38     130
   99.4     117
   99.42     140
   99.44     136
   99.46     127
   99.48     110
   99.5     124
   99.52     141
   99.54     145
   99.56     125
   99.58     127
   99.6     145
   99.62     130
   99.64     110
   99.66     128
   99.68     125
   99.7     125
   99.72     151
   99.74     134
   99.76     129
   99.78     117
   99.8     121
   99.82     109
   99.84     122
   99.86     141
   99.88     120
   99.9     133
   99.92     147
   99.94     122
   99.96     134
   99.98     139
   100     110
