1.106438443E+00  1.356589966E+03
1.126983281E+00  1.871287842E+03
1.147528119E+00  2.216627930E+03
1.168072957E+00  2.564491211E+03
1.188617795E+00  2.858072510E+03
1.209162633E+00  2.953515625E+03
1.229707471E+00  3.052876221E+03
1.250252309E+00  3.320614990E+03
1.270797146E+00  3.350567627E+03
1.291341984E+00  3.566177490E+03
1.311886822E+00  3.532525635E+03
1.332431660E+00  3.551471924E+03
1.352976498E+00  3.554884766E+03
1.373521336E+00  3.703669678E+03
1.394066174E+00  3.882081787E+03
1.414611012E+00  4.036503906E+03
1.435155850E+00  4.182983887E+03
1.455700688E+00  4.261080078E+03
1.476245526E+00  4.420771484E+03
1.496790364E+00  4.660329102E+03
1.517335202E+00  4.823977051E+03
1.537880040E+00  4.980280762E+03
1.558424878E+00  5.116978027E+03
1.578969716E+00  5.246650391E+03
1.599514554E+00  5.415946777E+03
1.620059392E+00  5.532984375E+03
1.640604230E+00  5.639761719E+03
1.661149068E+00  5.719947754E+03
1.681693906E+00  5.746853516E+03
1.702238744E+00  5.786083008E+03
1.722783582E+00  5.815552734E+03
1.743328420E+00  5.908250488E+03
1.763873258E+00  5.989205566E+03
1.784418096E+00  6.080794434E+03
1.804962934E+00  6.124803711E+03
1.825507772E+00  6.207347656E+03
1.846052609E+00  6.288898926E+03
1.866597447E+00  6.391713379E+03
1.887142285E+00  6.475106445E+03
1.907687123E+00  6.551762695E+03
1.928231961E+00  6.622994629E+03
1.948776799E+00  6.689001465E+03
1.969321637E+00  6.742547852E+03
1.989866475E+00  6.805735840E+03
2.010411313E+00  6.846251465E+03
2.030956151E+00  6.909921387E+03
2.051500989E+00  6.955399902E+03
2.072045827E+00  7.001537109E+03
2.092590665E+00  7.058352051E+03
2.113135503E+00  7.105681152E+03
2.133680341E+00  7.160752930E+03
2.154225179E+00  7.192138184E+03
2.174770017E+00  7.226186523E+03
2.195314855E+00  7.265011230E+03
2.215859693E+00  7.293881836E+03
2.236404531E+00  7.336291504E+03
2.256949369E+00  7.365066895E+03
2.277494207E+00  7.410579590E+03
2.298039045E+00  7.443299805E+03
2.318583883E+00  7.472345215E+03
2.339128721E+00  7.514695312E+03
2.359673559E+00  7.551477051E+03
2.380218397E+00  7.602872070E+03
2.400763235E+00  7.627835938E+03
2.421308072E+00  7.658239746E+03
2.441852910E+00  7.704774902E+03
2.462397748E+00  7.734871582E+03
2.482942586E+00  7.757166992E+03
2.503487424E+00  7.760596680E+03
2.524032262E+00  7.770028320E+03
2.544577100E+00  7.805787109E+03
2.565121938E+00  7.814124023E+03
2.585666776E+00  7.855235352E+03
2.606211614E+00  7.875668457E+03
2.626756452E+00  7.904935547E+03
2.647301290E+00  7.922916992E+03
2.667846128E+00  7.924487793E+03
2.688390966E+00  7.926120117E+03
2.708935804E+00  7.949071289E+03
2.729480642E+00  7.970074707E+03
2.750025480E+00  7.986350098E+03
2.770570318E+00  7.994538086E+03
2.791115156E+00  7.998536621E+03
2.811659994E+00  8.013287598E+03
2.832204832E+00  8.029366699E+03
2.852749670E+00  8.031764648E+03
2.873294508E+00  8.041692871E+03
2.893839346E+00  8.030293945E+03
2.914384184E+00  8.044038574E+03
2.934929022E+00  8.058398926E+03
2.955473860E+00  8.063591309E+03
2.976018698E+00  8.087361328E+03
2.996563535E+00  8.083477051E+03
3.017108373E+00  8.082287598E+03
3.037653211E+00  8.088893066E+03
3.058198049E+00  8.073952637E+03
3.078742887E+00  8.090296387E+03
3.099287725E+00  8.095338379E+03
3.119832563E+00  8.088785156E+03
3.140377401E+00  8.088549316E+03
3.160922239E+00  8.074636230E+03
3.181467077E+00  8.087628906E+03
3.202011915E+00  8.098969727E+03
3.222556753E+00  8.093986328E+03
3.243101591E+00  8.104830566E+03
3.263646429E+00  8.096407227E+03
3.284191267E+00  8.100911621E+03
3.304736105E+00  8.104972656E+03
3.325280943E+00  8.091900391E+03
3.345825781E+00  8.099086426E+03
3.366370619E+00  8.088650391E+03
3.386915457E+00  8.085883301E+03
3.407460295E+00  8.078941406E+03
3.428005133E+00  8.079042969E+03
3.448549971E+00  8.076979004E+03
3.469094809E+00  8.087161621E+03
3.489639647E+00  8.073489746E+03
3.510184485E+00  8.063614258E+03
3.530729323E+00  8.056207031E+03
3.551274161E+00  8.052089844E+03
3.571818998E+00  8.069071289E+03
3.592363836E+00  8.063966797E+03
3.612908674E+00  8.069359375E+03
3.633453512E+00  8.068145996E+03
3.653998350E+00  8.055347168E+03
3.674543188E+00  8.047477539E+03
3.695088026E+00  8.037233398E+03
3.715632864E+00  8.036526855E+03
3.736177702E+00  8.046703613E+03
3.756722540E+00  8.023608398E+03
3.777267378E+00  8.033265625E+03
3.797812216E+00  8.030398926E+03
3.818357054E+00  8.024044434E+03
3.838901892E+00  8.025080078E+03
3.859446730E+00  8.011565430E+03
3.879991568E+00  8.015509277E+03
3.900536406E+00  8.010368652E+03
3.921081244E+00  8.004183105E+03
3.941626082E+00  8.000305176E+03
3.962170920E+00  7.992369629E+03
3.982715758E+00  7.982942871E+03
4.003260596E+00  7.989433594E+03
4.023805434E+00  7.971639160E+03
4.044350272E+00  7.980880859E+03
4.064895110E+00  7.978937500E+03
4.085439948E+00  7.984791992E+03
4.105984786E+00  7.976837402E+03
4.126529624E+00  7.967244141E+03
4.147074461E+00  7.956543457E+03
4.167619299E+00  7.952895508E+03
4.188164137E+00  7.945821777E+03
4.208708975E+00  7.946142090E+03
4.229253813E+00  7.951039551E+03
4.249798651E+00  7.949466797E+03
4.270343489E+00  7.955935059E+03
4.290888327E+00  7.945425293E+03
4.311433165E+00  7.949440918E+03
4.331978003E+00  7.951326660E+03
4.352522841E+00  7.941335938E+03
4.373067679E+00  7.942150391E+03
4.393612517E+00  7.937511719E+03
4.414157355E+00  7.931091309E+03
4.434702193E+00  7.935395508E+03
4.455247031E+00  7.919010254E+03
4.475791869E+00  7.916850098E+03
4.496336707E+00  7.910012207E+03
4.516881545E+00  7.901628418E+03
4.537426383E+00  7.911552246E+03
4.557971221E+00  7.896286621E+03
4.578516059E+00  7.902206543E+03
4.599060897E+00  7.904389648E+03
4.619605735E+00  7.901919922E+03
4.640150573E+00  7.905149902E+03
4.660695411E+00  7.899531250E+03
4.681240249E+00  7.896237305E+03
4.701785087E+00  7.900751465E+03
4.722329925E+00  7.903816406E+03
4.742874762E+00  7.912239258E+03
4.763419600E+00  7.917265625E+03
4.783964438E+00  7.922993164E+03
4.804509276E+00  7.948781738E+03
4.825054114E+00  7.956325195E+03
4.845598952E+00  7.945437012E+03
4.866143790E+00  7.934711426E+03
4.886688628E+00  7.929134766E+03
4.907233466E+00  7.933334473E+03
4.927778304E+00  7.940557617E+03
4.948323142E+00  7.953004395E+03
4.968867980E+00  7.981754395E+03
4.989412818E+00  7.973023438E+03
5.009957656E+00  7.952468262E+03
5.030502494E+00  7.944120117E+03
5.051047332E+00  7.937401855E+03
5.071592170E+00  7.938601562E+03
5.092137008E+00  7.925865723E+03
5.112681846E+00  7.921226562E+03
5.133226684E+00  7.922565430E+03
5.153771522E+00  7.913050293E+03
5.174316360E+00  7.910382324E+03
5.194861198E+00  7.908329102E+03
5.215406036E+00  7.904479980E+03
5.235950874E+00  7.908536621E+03
5.256495712E+00  7.895981445E+03
5.277040550E+00  7.888077148E+03
5.297585388E+00  7.894671387E+03
5.318130225E+00  7.898032715E+03
5.338675063E+00  7.914200195E+03
5.359219901E+00  7.909291504E+03
5.379764739E+00  7.896379883E+03
5.400309577E+00  7.900081543E+03
5.420854415E+00  7.896658691E+03
5.441399253E+00  7.903451660E+03
5.461944091E+00  7.902719727E+03
5.482488929E+00  7.892442871E+03
5.503033767E+00  7.903493652E+03
5.523578605E+00  7.898922852E+03
5.544123443E+00  7.897456543E+03
5.564668281E+00  7.899571289E+03
5.585213119E+00  7.898849609E+03
5.605757957E+00  7.913034668E+03
5.626302795E+00  7.911835449E+03
5.646847633E+00  7.903703125E+03
5.667392471E+00  7.908803223E+03
5.687937309E+00  7.928016602E+03
5.708482147E+00  7.985053223E+03
5.729026985E+00  8.020259766E+03
5.749571823E+00  8.018162598E+03
5.770116661E+00  8.020636230E+03
5.790661499E+00  8.013725586E+03
5.811206337E+00  8.008788086E+03
5.831751175E+00  8.013645508E+03
5.852296013E+00  8.052645508E+03
5.872840851E+00  8.093101074E+03
5.893385688E+00  8.110106934E+03
5.913930526E+00  8.092098145E+03
5.934475364E+00  8.098967285E+03
5.955020202E+00  8.085334473E+03
5.975565040E+00  8.085967285E+03
5.996109878E+00  8.080533203E+03
6.016654716E+00  8.077521484E+03
6.037199554E+00  8.086718262E+03
6.057744392E+00  8.068308105E+03
6.078289230E+00  8.053636719E+03
6.098834068E+00  8.049026855E+03
6.119378906E+00  8.044674316E+03
6.139923744E+00  8.062876465E+03
6.160468582E+00  8.066236816E+03
6.181013420E+00  8.064548828E+03
6.201558258E+00  8.073984863E+03
6.222103096E+00  8.074797363E+03
6.242647934E+00  8.078600098E+03
6.263192772E+00  8.083738770E+03
6.283737610E+00  8.089198730E+03
6.304282448E+00  8.097263672E+03
6.324827286E+00  8.100097168E+03
6.345372124E+00  8.098778809E+03
6.365916962E+00  8.103209961E+03
6.386461800E+00  8.100466797E+03
6.407006638E+00  8.110722168E+03
6.427551476E+00  8.121308594E+03
6.448096314E+00  8.113139160E+03
6.468641151E+00  8.123364746E+03
6.489185989E+00  8.119146484E+03
6.509730827E+00  8.122874023E+03
6.530275665E+00  8.134567383E+03
6.550820503E+00  8.135331055E+03
6.571365341E+00  8.147847656E+03
6.591910179E+00  8.149330566E+03
6.612455017E+00  8.146331055E+03
6.632999855E+00  8.156615723E+03
6.653544693E+00  8.155063477E+03
6.674089531E+00  8.164798828E+03
6.694634369E+00  8.169047363E+03
6.715179207E+00  8.170688477E+03
6.735724045E+00  8.185765137E+03
6.756268883E+00  8.185168457E+03
6.776813721E+00  8.195586914E+03
6.797358559E+00  8.200317383E+03
6.817903397E+00  8.200847656E+03
6.838448235E+00  8.212215820E+03
6.858993073E+00  8.216353516E+03
6.879537911E+00  8.221477539E+03
6.900082749E+00  8.232990234E+03
6.920627587E+00  8.239877930E+03
6.941172425E+00  8.249269531E+03
6.961717263E+00  8.254232422E+03
6.982262101E+00  8.247452148E+03
7.002806939E+00  8.252643555E+03
7.023351777E+00  8.252256836E+03
7.043896614E+00  8.261632812E+03
7.064441452E+00  8.272703125E+03
7.084986290E+00  8.277500000E+03
7.105531128E+00  8.289010742E+03
7.126075966E+00  8.298435547E+03
7.146620804E+00  8.304207031E+03
7.167165642E+00  8.308474609E+03
7.187710480E+00  8.314392578E+03
7.208255318E+00  8.328137695E+03
7.228800156E+00  8.334726562E+03
7.249344994E+00  8.337021484E+03
7.269889832E+00  8.363210938E+03
7.290434670E+00  8.413104492E+03
7.310979508E+00  8.641582031E+03
7.331524346E+00  9.163833008E+03
7.352069184E+00  9.546611328E+03
7.372614022E+00  9.683863281E+03
7.393158860E+00  9.367470703E+03
7.413703698E+00  9.099914062E+03
7.434248536E+00  8.673410156E+03
7.454793374E+00  8.465212891E+03
7.475338212E+00  8.446270508E+03
7.495883050E+00  8.440200195E+03
7.516427888E+00  8.438645508E+03
7.536972726E+00  8.448083984E+03
7.557517564E+00  8.453010742E+03
7.578062402E+00  8.463548828E+03
7.598607240E+00  8.470677734E+03
7.619152077E+00  8.470022461E+03
7.639696915E+00  8.483409180E+03
7.660241753E+00  8.497289062E+03
7.680786591E+00  8.505277344E+03
7.701331429E+00  8.513494141E+03
7.721876267E+00  8.516475586E+03
7.742421105E+00  8.525156250E+03
7.762965943E+00  8.532654297E+03
7.783510781E+00  8.531811523E+03
7.804055619E+00  8.540752930E+03
7.824600457E+00  8.548195312E+03
7.845145295E+00  8.563418945E+03
7.865690133E+00  8.579787109E+03
7.886234971E+00  8.587196289E+03
7.906779809E+00  8.592685547E+03
7.927324647E+00  8.595910156E+03
7.947869485E+00  8.598383789E+03
7.968414323E+00  8.615413086E+03
7.988959161E+00  8.630286133E+03
8.009503999E+00  8.658146484E+03
8.030048837E+00  8.677387695E+03
8.050593675E+00  8.685898438E+03
8.071138513E+00  8.710479492E+03
8.091683351E+00  8.739678711E+03
8.112228189E+00  8.804301758E+03
8.132773027E+00  8.877153320E+03
8.153317865E+00  9.085209961E+03
8.173862703E+00  9.507074219E+03
8.194407540E+00  1.013791406E+04
8.214952378E+00  1.137955371E+04
8.235497216E+00  1.198786035E+04
8.256042054E+00  1.237552734E+04
8.276586892E+00  1.162051953E+04
8.297131730E+00  1.081929688E+04
8.317676568E+00  9.579214844E+03
8.338221406E+00  9.206512695E+03
8.358766244E+00  8.924635742E+03
8.379311082E+00  8.884627930E+03
8.399855920E+00  8.886764648E+03
8.420400758E+00  8.882085938E+03
8.440945596E+00  8.889104492E+03
8.461490434E+00  8.871600586E+03
8.482035272E+00  8.867011719E+03
8.502580110E+00  8.868835938E+03
8.523124948E+00  8.866903320E+03
8.543669786E+00  8.879315430E+03
8.564214624E+00  8.879093750E+03
8.584759462E+00  8.881803711E+03
8.605304300E+00  8.887251953E+03
8.625849138E+00  8.895456055E+03
8.646393976E+00  8.905212891E+03
8.666938814E+00  8.922134766E+03
8.687483652E+00  8.934315430E+03
8.708028490E+00  8.954359375E+03
8.728573328E+00  8.962705078E+03
8.749118166E+00  8.976207031E+03
8.769663003E+00  8.988673828E+03
8.790207841E+00  9.004172852E+03
8.810752679E+00  9.025655273E+03
8.831297517E+00  9.043340820E+03
8.851842355E+00  9.058261719E+03
8.872387193E+00  9.087239258E+03
8.892932031E+00  9.100336914E+03
8.913476869E+00  9.124158203E+03
8.934021707E+00  9.134543945E+03
8.954566545E+00  9.162720703E+03
8.975111383E+00  9.200518555E+03
8.995656221E+00  9.261380859E+03
9.016201059E+00  9.341409180E+03
9.036745897E+00  9.444700195E+03
9.057290735E+00  9.562839844E+03
9.077835573E+00  9.794210938E+03
9.098380411E+00  1.023380273E+04
9.118925249E+00  1.130701465E+04
9.139470087E+00  1.349034961E+04
9.160014925E+00  1.847644531E+04
9.180559763E+00  2.406788086E+04
9.201104601E+00  2.890041211E+04
9.221649439E+00  2.801782812E+04
9.242194277E+00  2.436188477E+04
9.262739115E+00  1.780218359E+04
9.283283953E+00  1.358089551E+04
9.303828791E+00  1.067263184E+04
9.324373629E+00  9.914487305E+03
9.344918467E+00  9.607811523E+03
9.365463304E+00  9.484051758E+03
9.386008142E+00  9.440152344E+03
9.406552980E+00  9.418753906E+03
9.427097818E+00  9.426355469E+03
9.447642656E+00  9.456441406E+03
9.468187494E+00  9.507414062E+03
9.488732332E+00  9.573691406E+03
9.509277170E+00  9.643600586E+03
9.529822008E+00  9.634793945E+03
9.550366846E+00  9.592291992E+03
9.570911684E+00  9.530396484E+03
9.591456522E+00  9.516887695E+03
9.612001360E+00  9.549844727E+03
9.632546198E+00  9.634434570E+03
9.653091036E+00  9.844573242E+03
9.673635874E+00  1.030138867E+04
9.694180712E+00  1.091421387E+04
9.714725550E+00  1.178717773E+04
9.735270388E+00  1.247787305E+04
9.755815226E+00  1.253949707E+04
9.776360064E+00  1.206628320E+04
9.796904902E+00  1.128815527E+04
9.817449740E+00  1.066926855E+04
9.837994578E+00  1.002610547E+04
9.858539416E+00  9.763218750E+03
9.879084254E+00  9.618432617E+03
9.899629092E+00  9.581474609E+03
9.920173930E+00  9.603997070E+03
9.940718767E+00  9.655698242E+03
9.961263605E+00  9.767325195E+03
9.981808443E+00  9.931818359E+03
1.000235328E+01  1.004318262E+04
1.002289812E+01  1.003527539E+04
1.004344296E+01  9.904079102E+03
1.006398780E+01  9.739913086E+03
1.008453263E+01  9.658861328E+03
1.010507747E+01  9.642803711E+03
1.012562231E+01  9.731743164E+03
1.014616715E+01  1.003872559E+04
1.016671199E+01  1.086584082E+04
1.018725682E+01  1.193397266E+04
1.020780166E+01  1.331348535E+04
1.022834650E+01  1.316744531E+04
1.024889134E+01  1.215592969E+04
1.026943617E+01  1.059608691E+04
1.028998101E+01  9.919570312E+03
1.031052585E+01  9.765257812E+03
1.033107069E+01  9.747873047E+03
1.035161553E+01  9.777348633E+03
1.037216036E+01  9.899060547E+03
1.039270520E+01  1.011581250E+04
1.041325004E+01  1.035145117E+04
1.043379488E+01  1.049372168E+04
1.045433972E+01  1.046546289E+04
1.047488455E+01  1.020084473E+04
1.049542939E+01  1.002816992E+04
1.051597423E+01  9.897263672E+03
1.053651907E+01  9.848051758E+03
1.055706391E+01  9.829664062E+03
1.057760874E+01  9.818713867E+03
1.059815358E+01  9.824585938E+03
1.061869842E+01  9.834846680E+03
1.063924326E+01  9.845025391E+03
1.065978810E+01  9.858487305E+03
1.068033293E+01  9.868192383E+03
1.070087777E+01  9.873728516E+03
1.072142261E+01  9.884441406E+03
1.074196745E+01  9.890003906E+03
1.076251229E+01  9.908071289E+03
1.078305712E+01  9.920815430E+03
1.080360196E+01  9.947086914E+03
1.082414680E+01  9.977527344E+03
1.084469164E+01  9.997414062E+03
1.086523648E+01  1.002324805E+04
1.088578131E+01  1.005727637E+04
1.090632615E+01  1.012892383E+04
1.092687099E+01  1.025850879E+04
1.094741583E+01  1.063898926E+04
1.096796067E+01  1.123603711E+04
1.098850550E+01  1.223464062E+04
1.100905034E+01  1.348190234E+04
1.102959518E+01  1.441971680E+04
1.105014002E+01  1.469751562E+04
1.107068486E+01  1.412735254E+04
1.109122969E+01  1.323468164E+04
1.111177453E+01  1.199018457E+04
1.113231937E+01  1.122908008E+04
1.115286421E+01  1.070513965E+04
1.117340905E+01  1.042503027E+04
1.119395388E+01  1.031170898E+04
1.121449872E+01  1.027349707E+04
1.123504356E+01  1.027932617E+04
1.125558840E+01  1.030476270E+04
1.127613324E+01  1.033146484E+04
1.129667807E+01  1.036641113E+04
1.131722291E+01  1.039448828E+04
1.133776775E+01  1.045468555E+04
1.135831259E+01  1.050899121E+04
1.137885742E+01  1.058240234E+04
1.139940226E+01  1.068940723E+04
1.141994710E+01  1.085685840E+04
1.144049194E+01  1.115583887E+04
1.146103678E+01  1.172040137E+04
1.148158161E+01  1.313926465E+04
1.150212645E+01  1.691301367E+04
1.152267129E+01  2.547078125E+04
1.154321613E+01  3.975980469E+04
1.156376097E+01  5.486904297E+04
1.158430580E+01  6.320793359E+04
1.160485064E+01  5.985180859E+04
1.162539548E+01  4.833589844E+04
1.164594032E+01  3.597735156E+04
1.166648516E+01  2.620308594E+04
1.168702999E+01  1.930822656E+04
1.170757483E+01  1.570770020E+04
1.172811967E+01  1.329913184E+04
1.174866451E+01  1.195574219E+04
1.176920935E+01  1.130016602E+04
1.178975418E+01  1.093315723E+04
1.181029902E+01  1.079674805E+04
1.183084386E+01  1.070555371E+04
1.185138870E+01  1.065387891E+04
1.187193354E+01  1.061188672E+04
1.189247837E+01  1.057611719E+04
1.191302321E+01  1.056488770E+04
1.193356805E+01  1.054817676E+04
1.195411289E+01  1.055118359E+04
1.197465773E+01  1.054591504E+04
1.199520256E+01  1.054130762E+04
1.201574740E+01  1.053056348E+04
1.203629224E+01  1.053027051E+04
1.205683708E+01  1.053019629E+04
1.207738192E+01  1.053409570E+04
1.209792675E+01  1.052890527E+04
1.211847159E+01  1.053419141E+04
1.213901643E+01  1.053270996E+04
1.215956127E+01  1.053203223E+04
1.218010611E+01  1.054056250E+04
1.220065094E+01  1.054304395E+04
1.222119578E+01  1.055443652E+04
1.224174062E+01  1.055419141E+04
1.226228546E+01  1.055477344E+04
1.228283030E+01  1.055937207E+04
1.230337513E+01  1.055898242E+04
1.232391997E+01  1.056920312E+04
1.234446481E+01  1.057399707E+04
1.236500965E+01  1.058334473E+04
1.238555449E+01  1.059174316E+04
1.240609932E+01  1.059056641E+04
1.242664416E+01  1.059368457E+04
1.244718900E+01  1.059924023E+04
1.246773384E+01  1.060024414E+04
1.248827868E+01  1.061164844E+04
1.250882351E+01  1.061129883E+04
1.252936835E+01  1.062561133E+04
1.254991319E+01  1.062463184E+04
1.257045803E+01  1.063927637E+04
1.259100286E+01  1.065132520E+04
1.261154770E+01  1.066097266E+04
1.263209254E+01  1.067594238E+04
1.265263738E+01  1.067931738E+04
1.267318222E+01  1.068755957E+04
1.269372705E+01  1.068758496E+04
1.271427189E+01  1.069708496E+04
1.273481673E+01  1.071127930E+04
1.275536157E+01  1.073253809E+04
1.277590641E+01  1.074421387E+04
1.279645124E+01  1.077621094E+04
1.281699608E+01  1.078382520E+04
1.283754092E+01  1.081439453E+04
1.285808576E+01  1.083269043E+04
1.287863060E+01  1.087651660E+04
1.289917543E+01  1.091752734E+04
1.291972027E+01  1.097064844E+04
1.294026511E+01  1.103401758E+04
1.296080995E+01  1.110100098E+04
1.298135479E+01  1.111380664E+04
1.300189962E+01  1.108105273E+04
1.302244446E+01  1.100746191E+04
1.304298930E+01  1.095348926E+04
1.306353414E+01  1.093243164E+04
1.308407898E+01  1.092659961E+04
1.310462381E+01  1.095059863E+04
1.312516865E+01  1.093738965E+04
1.314571349E+01  1.091259180E+04
1.316625833E+01  1.087891699E+04
1.318680317E+01  1.088388281E+04
1.320734800E+01  1.088492090E+04
1.322789284E+01  1.089742676E+04
1.324843768E+01  1.090707031E+04
1.326898252E+01  1.091862988E+04
1.328952736E+01  1.092895898E+04
1.331007219E+01  1.093592773E+04
1.333061703E+01  1.093718164E+04
1.335116187E+01  1.094386133E+04
1.337170671E+01  1.094755957E+04
1.339225155E+01  1.094699609E+04
1.341279638E+01  1.095103906E+04
1.343334122E+01  1.095276074E+04
1.345388606E+01  1.096663867E+04
1.347443090E+01  1.096716602E+04
1.349497574E+01  1.097199512E+04
1.351552057E+01  1.097663477E+04
1.353606541E+01  1.098798828E+04
1.355661025E+01  1.099793457E+04
1.357715509E+01  1.100727344E+04
1.359769993E+01  1.101206348E+04
1.361824476E+01  1.102008594E+04
1.363878960E+01  1.102626172E+04
1.365933444E+01  1.104200293E+04
1.367987928E+01  1.104808691E+04
1.370042411E+01  1.105124805E+04
1.372096895E+01  1.105916211E+04
1.374151379E+01  1.106897754E+04
1.376205863E+01  1.108203125E+04
1.378260347E+01  1.109055176E+04
1.380314830E+01  1.109580957E+04
1.382369314E+01  1.110621973E+04
1.384423798E+01  1.111264941E+04
1.386478282E+01  1.112750293E+04
1.388532766E+01  1.114121875E+04
1.390587249E+01  1.116326270E+04
1.392641733E+01  1.117966113E+04
1.394696217E+01  1.118757520E+04
1.396750701E+01  1.118573926E+04
1.398805185E+01  1.117962793E+04
1.400859668E+01  1.117799414E+04
1.402914152E+01  1.118140625E+04
1.404968636E+01  1.119452930E+04
1.407023120E+01  1.120830371E+04
1.409077604E+01  1.122019629E+04
1.411132087E+01  1.123273828E+04
1.413186571E+01  1.124684473E+04
1.415241055E+01  1.126642871E+04
1.417295539E+01  1.131207910E+04
1.419350023E+01  1.137743945E+04
1.421404506E+01  1.146610938E+04
1.423458990E+01  1.162674609E+04
1.425513474E+01  1.176119727E+04
1.427567958E+01  1.190582227E+04
1.429622442E+01  1.192681934E+04
1.431676925E+01  1.186445605E+04
1.433731409E+01  1.168641309E+04
1.435785893E+01  1.157015918E+04
1.437840377E+01  1.146350684E+04
1.439894861E+01  1.141336523E+04
1.441949344E+01  1.139087598E+04
1.444003828E+01  1.138244141E+04
1.446058312E+01  1.137701758E+04
1.448112796E+01  1.138547852E+04
1.450167280E+01  1.139014160E+04
1.452221763E+01  1.139309863E+04
1.454276247E+01  1.140344531E+04
1.456330731E+01  1.141016016E+04
1.458385215E+01  1.142258594E+04
1.460439699E+01  1.143593945E+04
1.462494182E+01  1.145977051E+04
1.464548666E+01  1.148281445E+04
1.466603150E+01  1.152376855E+04
1.468657634E+01  1.159833984E+04
1.470712118E+01  1.172682910E+04
1.472766601E+01  1.198254395E+04
1.474821085E+01  1.236065039E+04
1.476875569E+01  1.276758301E+04
1.478930053E+01  1.330844434E+04
1.480984537E+01  1.399933398E+04
1.483039020E+01  1.487780371E+04
1.485093504E+01  1.569084863E+04
1.487147988E+01  1.609127344E+04
1.489202472E+01  1.599035254E+04
1.491256955E+01  1.533111523E+04
1.493311439E+01  1.436253320E+04
1.495365923E+01  1.338855859E+04
1.497420407E+01  1.263991895E+04
1.499474891E+01  1.212265234E+04
1.501529374E+01  1.186954004E+04
1.503583858E+01  1.173457520E+04
1.505638342E+01  1.170273535E+04
1.507692826E+01  1.172189258E+04
1.509747310E+01  1.181104004E+04
1.511801793E+01  1.192108887E+04
1.513856277E+01  1.198314844E+04
1.515910761E+01  1.195235742E+04
1.517965245E+01  1.188608691E+04
1.520019729E+01  1.182892773E+04
1.522074212E+01  1.179135449E+04
1.524128696E+01  1.178975195E+04
1.526183180E+01  1.181332227E+04
1.528237664E+01  1.182020898E+04
1.530292148E+01  1.180038965E+04
1.532346631E+01  1.178154199E+04
1.534401115E+01  1.177557422E+04
1.536455599E+01  1.176906641E+04
1.538510083E+01  1.177041699E+04
1.540564567E+01  1.178068066E+04
1.542619050E+01  1.178774023E+04
1.544673534E+01  1.179494727E+04
1.546728018E+01  1.179781250E+04
1.548782502E+01  1.180341602E+04
1.550836986E+01  1.181456738E+04
1.552891469E+01  1.182388184E+04
1.554945953E+01  1.183626367E+04
1.557000437E+01  1.186434766E+04
1.559054921E+01  1.192884570E+04
1.561109405E+01  1.203030176E+04
1.563163888E+01  1.228267285E+04
1.565218372E+01  1.252287305E+04
1.567272856E+01  1.286669336E+04
1.569327340E+01  1.320129688E+04
1.571381824E+01  1.357129980E+04
1.573436307E+01  1.398385840E+04
1.575490791E+01  1.445047461E+04
1.577545275E+01  1.476204395E+04
1.579599759E+01  1.477994727E+04
1.581654243E+01  1.436327246E+04
1.583708726E+01  1.383509570E+04
1.585763210E+01  1.325679004E+04
1.587817694E+01  1.291818945E+04
1.589872178E+01  1.272421875E+04
1.591926662E+01  1.252430762E+04
1.593981145E+01  1.238800293E+04
1.596035629E+01  1.225820410E+04
1.598090113E+01  1.215250977E+04
1.600144597E+01  1.211026270E+04
1.602199080E+01  1.212038770E+04
1.604253564E+01  1.213737793E+04
1.606308048E+01  1.214422070E+04
1.608362532E+01  1.216283984E+04
1.610417016E+01  1.220489941E+04
1.612471499E+01  1.223789941E+04
1.614525983E+01  1.226231543E+04
1.616580467E+01  1.228567578E+04
1.618634951E+01  1.230622852E+04
1.620689435E+01  1.234643066E+04
1.622743918E+01  1.241040820E+04
1.624798402E+01  1.252463867E+04
1.626852886E+01  1.271873535E+04
1.628907370E+01  1.313011230E+04
1.630961854E+01  1.392225879E+04
1.633016337E+01  1.565572168E+04
1.635070821E+01  1.860615625E+04
1.637125305E+01  2.265116211E+04
1.639179789E+01  2.671318750E+04
1.641234273E+01  2.810538867E+04
1.643288756E+01  2.631216406E+04
1.645343240E+01  2.282291797E+04
1.647397724E+01  1.958262695E+04
1.649452208E+01  1.764637891E+04
1.651506692E+01  1.663627539E+04
1.653561175E+01  1.582954004E+04
1.655615659E+01  1.499954688E+04
1.657670143E+01  1.403940137E+04
1.659724627E+01  1.334515625E+04
1.661779111E+01  1.292375391E+04
1.663833594E+01  1.264874219E+04
1.665888078E+01  1.249109570E+04
1.667942562E+01  1.239101758E+04
1.669997046E+01  1.235801270E+04
1.672051530E+01  1.233627637E+04
1.674106013E+01  1.233206543E+04
1.676160497E+01  1.234668750E+04
1.678214981E+01  1.237724219E+04
1.680269465E+01  1.246428613E+04
1.682323949E+01  1.260097363E+04
1.684378432E+01  1.281997266E+04
1.686432916E+01  1.316107520E+04
1.688487400E+01  1.353826465E+04
1.690541884E+01  1.386216016E+04
1.692596368E+01  1.403577148E+04
1.694650851E+01  1.405052051E+04
1.696705335E+01  1.383904883E+04
1.698759819E+01  1.347184570E+04
1.700814303E+01  1.311251172E+04
1.702868787E+01  1.279103711E+04
1.704923270E+01  1.256283301E+04
1.706977754E+01  1.244575879E+04
1.709032238E+01  1.240363672E+04
1.711086722E+01  1.238680762E+04
1.713141206E+01  1.237662012E+04
1.715195689E+01  1.238164941E+04
1.717250173E+01  1.238599902E+04
1.719304657E+01  1.239780273E+04
1.721359141E+01  1.240845996E+04
1.723413624E+01  1.242226465E+04
1.725468108E+01  1.242728516E+04
1.727522592E+01  1.243000000E+04
1.729577076E+01  1.243746484E+04
1.731631560E+01  1.245116895E+04
1.733686043E+01  1.245646680E+04
1.735740527E+01  1.246297363E+04
1.737795011E+01  1.246647949E+04
1.739849495E+01  1.248046582E+04
1.741903979E+01  1.249048730E+04
1.743958462E+01  1.250714746E+04
1.746012946E+01  1.252542480E+04
1.748067430E+01  1.254458496E+04
1.750121914E+01  1.256565039E+04
1.752176398E+01  1.259308887E+04
1.754230881E+01  1.263506641E+04
1.756285365E+01  1.269761914E+04
1.758339849E+01  1.280145410E+04
1.760394333E+01  1.297626074E+04
1.762448817E+01  1.330932812E+04
1.764503300E+01  1.396008789E+04
1.766557784E+01  1.503154980E+04
1.768612268E+01  1.674203711E+04
1.770666752E+01  1.822516797E+04
1.772721236E+01  1.904941211E+04
1.774775719E+01  1.830039844E+04
1.776830203E+01  1.700556055E+04
1.778884687E+01  1.530497363E+04
1.780939171E+01  1.418425488E+04
1.782993655E+01  1.342581934E+04
1.785048138E+01  1.306879297E+04
1.787102622E+01  1.286109570E+04
1.789157106E+01  1.276656934E+04
1.791211590E+01  1.272732520E+04
1.793266074E+01  1.272703711E+04
1.795320557E+01  1.272920508E+04
1.797375041E+01  1.272876270E+04
1.799429525E+01  1.274880078E+04
1.801484009E+01  1.275519141E+04
1.803538493E+01  1.277132715E+04
1.805592976E+01  1.277112598E+04
1.807647460E+01  1.277616113E+04
1.809701944E+01  1.276641113E+04
1.811756428E+01  1.275660156E+04
1.813810912E+01  1.274865039E+04
1.815865395E+01  1.274213672E+04
1.817919879E+01  1.274073340E+04
1.819974363E+01  1.273434766E+04
1.822028847E+01  1.273168945E+04
1.824083331E+01  1.273598633E+04
1.826137814E+01  1.273522461E+04
1.828192298E+01  1.274557520E+04
1.830246782E+01  1.276188672E+04
1.832301266E+01  1.278121875E+04
1.834355749E+01  1.279348926E+04
1.836410233E+01  1.280571387E+04
1.838464717E+01  1.280839648E+04
1.840519201E+01  1.279750781E+04
1.842573685E+01  1.279504004E+04
1.844628168E+01  1.277927246E+04
1.846682652E+01  1.277394434E+04
1.848737136E+01  1.275946387E+04
1.850791620E+01  1.274921387E+04
1.852846104E+01  1.273816504E+04
1.854900587E+01  1.273410840E+04
1.856955071E+01  1.273664453E+04
1.859009555E+01  1.273688965E+04
1.861064039E+01  1.274096680E+04
1.863118523E+01  1.274331641E+04
1.865173006E+01  1.274577051E+04
1.867227490E+01  1.275318066E+04
1.869281974E+01  1.275810449E+04
1.871336458E+01  1.276529785E+04
1.873390942E+01  1.277307617E+04
1.875445425E+01  1.277373340E+04
1.877499909E+01  1.277855664E+04
1.879554393E+01  1.277518848E+04
1.881608877E+01  1.278832520E+04
1.883663361E+01  1.278937109E+04
1.885717844E+01  1.279221094E+04
1.887772328E+01  1.280297266E+04
1.889826812E+01  1.282218945E+04
1.891881296E+01  1.283866797E+04
1.893935780E+01  1.284405273E+04
1.895990263E+01  1.284854785E+04
1.898044747E+01  1.285167871E+04
1.900099231E+01  1.285136719E+04
1.902153715E+01  1.286507227E+04
1.904208199E+01  1.288169434E+04
1.906262682E+01  1.290139160E+04
1.908317166E+01  1.291426660E+04
1.910371650E+01  1.293477148E+04
1.912426134E+01  1.298244434E+04
1.914480618E+01  1.306687207E+04
1.916535101E+01  1.323468750E+04
1.918589585E+01  1.350829883E+04
1.920644069E+01  1.389927539E+04
1.922698553E+01  1.431674219E+04
1.924753037E+01  1.462229004E+04
1.926807520E+01  1.465710742E+04
1.928862004E+01  1.444509863E+04
1.930916488E+01  1.409655957E+04
1.932970972E+01  1.375250781E+04
1.935025456E+01  1.347653223E+04
1.937079939E+01  1.330491504E+04
1.939134423E+01  1.320110352E+04
1.941188907E+01  1.315510938E+04
1.943243391E+01  1.313854199E+04
1.945297875E+01  1.317076562E+04
1.947352358E+01  1.321960449E+04
1.949406842E+01  1.331499805E+04
1.951461326E+01  1.341260547E+04
1.953515810E+01  1.356440332E+04
1.955570293E+01  1.372570020E+04
1.957624777E+01  1.391238574E+04
1.959679261E+01  1.410638477E+04
1.961733745E+01  1.432411523E+04
1.963788229E+01  1.438213867E+04
1.965842712E+01  1.436669336E+04
1.967897196E+01  1.416222949E+04
1.969951680E+01  1.394154004E+04
1.972006164E+01  1.368049219E+04
1.974060648E+01  1.344676172E+04
1.976115131E+01  1.327774316E+04
1.978169615E+01  1.315157520E+04
1.980224099E+01  1.307909766E+04
1.982278583E+01  1.302558887E+04
1.984333067E+01  1.300223926E+04
1.986387550E+01  1.298563672E+04
1.988442034E+01  1.298490430E+04
1.990496518E+01  1.298939746E+04
1.992551002E+01  1.300032324E+04
1.994605486E+01  1.301871875E+04
1.996659969E+01  1.304657129E+04
1.998714453E+01  1.309374805E+04
2.000768937E+01  1.318263965E+04
2.002823421E+01  1.333921289E+04
2.004877905E+01  1.359931348E+04
2.006932388E+01  1.389702148E+04
2.008986872E+01  1.417339453E+04
2.011041356E+01  1.430183789E+04
2.013095840E+01  1.426243555E+04
2.015150324E+01  1.418253711E+04
2.017204807E+01  1.411016016E+04
2.019259291E+01  1.415298242E+04
2.021313775E+01  1.423056738E+04
2.023368259E+01  1.433814941E+04
2.025422743E+01  1.445328906E+04
2.027477226E+01  1.459457910E+04
2.029531710E+01  1.473929688E+04
2.031586194E+01  1.492179883E+04
2.033640678E+01  1.507089355E+04
2.035695162E+01  1.514627344E+04
2.037749645E+01  1.508461816E+04
2.039804129E+01  1.484103516E+04
2.041858613E+01  1.447085059E+04
2.043913097E+01  1.411854492E+04
2.045967581E+01  1.393176758E+04
2.048022064E+01  1.382588867E+04
2.050076548E+01  1.378995508E+04
2.052131032E+01  1.373003027E+04
2.054185516E+01  1.368806738E+04
2.056240000E+01  1.365091992E+04
2.058294483E+01  1.364700879E+04
2.060348967E+01  1.363904785E+04
2.062403451E+01  1.360545801E+04
2.064457935E+01  1.355366602E+04
2.066512418E+01  1.347159473E+04
2.068566902E+01  1.338477539E+04
2.070621386E+01  1.331381738E+04
2.072675870E+01  1.326135645E+04
2.074730354E+01  1.322377832E+04
2.076784837E+01  1.320114746E+04
2.078839321E+01  1.319235645E+04
2.080893805E+01  1.319250098E+04
2.082948289E+01  1.320150586E+04
2.085002773E+01  1.321664258E+04
2.087057256E+01  1.324717676E+04
2.089111740E+01  1.331229395E+04
2.091166224E+01  1.343340137E+04
2.093220708E+01  1.379915820E+04
2.095275192E+01  1.445288867E+04
2.097329675E+01  1.531740234E+04
2.099384159E+01  1.578035449E+04
2.101438643E+01  1.549527832E+04
2.103493127E+01  1.471480859E+04
2.105547611E+01  1.387046582E+04
2.107602094E+01  1.345371973E+04
2.109656578E+01  1.332468262E+04
2.111711062E+01  1.330315234E+04
2.113765546E+01  1.332670898E+04
2.115820030E+01  1.338171387E+04
2.117874513E+01  1.352816113E+04
2.119928997E+01  1.385340137E+04
2.121983481E+01  1.445748730E+04
2.124037965E+01  1.516417676E+04
2.126092449E+01  1.542524902E+04
2.128146932E+01  1.515722070E+04
2.130201416E+01  1.451697754E+04
2.132255900E+01  1.388655566E+04
2.134310384E+01  1.344462598E+04
2.136364868E+01  1.331564355E+04
2.138419351E+01  1.328631348E+04
2.140473835E+01  1.327754004E+04
2.142528319E+01  1.326955957E+04
2.144582803E+01  1.327004785E+04
2.146637287E+01  1.328212012E+04
2.148691770E+01  1.330147559E+04
2.150746254E+01  1.335034863E+04
2.152800738E+01  1.341922266E+04
2.154855222E+01  1.350360449E+04
2.156909706E+01  1.357887793E+04
2.158964189E+01  1.361888477E+04
2.161018673E+01  1.362477344E+04
2.163073157E+01  1.359728125E+04
2.165127641E+01  1.358544824E+04
2.167182125E+01  1.354843066E+04
2.169236608E+01  1.351057715E+04
2.171291092E+01  1.346050488E+04
2.173345576E+01  1.344437109E+04
2.175400060E+01  1.371122168E+04
2.177454543E+01  1.406397949E+04
2.179509027E+01  1.463612305E+04
2.181563511E+01  1.486272363E+04
2.183617995E+01  1.499949805E+04
2.185672479E+01  1.504543555E+04
2.187726962E+01  1.487385547E+04
2.189781446E+01  1.457291211E+04
2.191835930E+01  1.424279004E+04
2.193890414E+01  1.415037891E+04
2.195944898E+01  1.412038477E+04
2.197999381E+01  1.412326953E+04
2.200053865E+01  1.405918555E+04
2.202108349E+01  1.397047754E+04
2.204162833E+01  1.384476270E+04
2.206217317E+01  1.365800000E+04
2.208271800E+01  1.358287695E+04
2.210326284E+01  1.356646777E+04
2.212380768E+01  1.365386230E+04
2.214435252E+01  1.377961621E+04
2.216489736E+01  1.390412500E+04
2.218544219E+01  1.403769727E+04
2.220598703E+01  1.417292480E+04
2.222653187E+01  1.433867969E+04
2.224707671E+01  1.449067383E+04
2.226762155E+01  1.464959863E+04
2.228816638E+01  1.474170312E+04
2.230871122E+01  1.473819629E+04
2.232925606E+01  1.457972168E+04
2.234980090E+01  1.437096875E+04
2.237034574E+01  1.414652539E+04
2.239089057E+01  1.395611523E+04
2.241143541E+01  1.378141602E+04
2.243198025E+01  1.366585254E+04
2.245252509E+01  1.357690723E+04
2.247306993E+01  1.352872461E+04
2.249361476E+01  1.349785352E+04
2.251415960E+01  1.349244336E+04
2.253470444E+01  1.349186621E+04
2.255524928E+01  1.349238477E+04
2.257579412E+01  1.348586328E+04
2.259633895E+01  1.347740430E+04
2.261688379E+01  1.346717285E+04
2.263742863E+01  1.345457715E+04
2.265797347E+01  1.344774805E+04
2.267851831E+01  1.345405371E+04
2.269906314E+01  1.346976660E+04
2.271960798E+01  1.350016309E+04
2.274015282E+01  1.354314551E+04
2.276069766E+01  1.360111621E+04
2.278124250E+01  1.365613281E+04
2.280178733E+01  1.368713770E+04
2.282233217E+01  1.369391992E+04
2.284287701E+01  1.366439844E+04
2.286342185E+01  1.361495020E+04
2.288396669E+01  1.355741992E+04
2.290451152E+01  1.351232422E+04
2.292505636E+01  1.346892383E+04
2.294560120E+01  1.343932812E+04
2.296614604E+01  1.341511816E+04
2.298669087E+01  1.339107422E+04
2.300723571E+01  1.338034082E+04
2.302778055E+01  1.337425195E+04
2.304832539E+01  1.337415430E+04
2.306887023E+01  1.338087500E+04
2.308941506E+01  1.339426367E+04
2.310995990E+01  1.342202539E+04
2.313050474E+01  1.346857227E+04
2.315104958E+01  1.354747168E+04
2.317159442E+01  1.368387891E+04
2.319213925E+01  1.391856445E+04
2.321268409E+01  1.426904980E+04
2.323322893E+01  1.471419434E+04
2.325377377E+01  1.515045996E+04
2.327431861E+01  1.542209570E+04
2.329486344E+01  1.547087109E+04
2.331540828E+01  1.529865234E+04
2.333595312E+01  1.496997852E+04
2.335649796E+01  1.473850488E+04
2.337704280E+01  1.462374219E+04
2.339758763E+01  1.454573438E+04
2.341813247E+01  1.449284082E+04
2.343867731E+01  1.442827148E+04
2.345922215E+01  1.445688672E+04
2.347976699E+01  1.451548340E+04
2.350031182E+01  1.455304688E+04
2.352085666E+01  1.454275098E+04
2.354140150E+01  1.444105273E+04
2.356194634E+01  1.427137402E+04
2.358249118E+01  1.405234863E+04
2.360303601E+01  1.388664062E+04
2.362358085E+01  1.376813770E+04
2.364412569E+01  1.371190039E+04
2.366467053E+01  1.370848535E+04
2.368521537E+01  1.374439746E+04
2.370576020E+01  1.379581250E+04
2.372630504E+01  1.381684180E+04
2.374684988E+01  1.377110352E+04
2.376739472E+01  1.369171094E+04
2.378793956E+01  1.360990234E+04
2.380848439E+01  1.354496875E+04
2.382902923E+01  1.349258691E+04
2.384957407E+01  1.345520996E+04
2.387011891E+01  1.342660352E+04
2.389066375E+01  1.340249316E+04
2.391120858E+01  1.339189258E+04
2.393175342E+01  1.339187012E+04
2.395229826E+01  1.339678809E+04
2.397284310E+01  1.340970020E+04
2.399338794E+01  1.344524023E+04
2.401393277E+01  1.351292480E+04
2.403447761E+01  1.362280566E+04
2.405502245E+01  1.377497656E+04
2.407556729E+01  1.395068750E+04
2.409611212E+01  1.409732324E+04
2.411665696E+01  1.416549902E+04
2.413720180E+01  1.414950195E+04
2.415774664E+01  1.407343750E+04
2.417829148E+01  1.396867773E+04
2.419883631E+01  1.384874414E+04
2.421938115E+01  1.374086230E+04
2.423992599E+01  1.365287402E+04
2.426047083E+01  1.358513574E+04
2.428101567E+01  1.354442871E+04
2.430156050E+01  1.352299707E+04
2.432210534E+01  1.351522168E+04
2.434265018E+01  1.352234863E+04
2.436319502E+01  1.353764355E+04
2.438373986E+01  1.355781934E+04
2.440428469E+01  1.357975879E+04
2.442482953E+01  1.358389160E+04
2.444537437E+01  1.355617578E+04
2.446591921E+01  1.352222461E+04
2.448646405E+01  1.348478125E+04
2.450700888E+01  1.345706934E+04
2.452755372E+01  1.344222461E+04
2.454809856E+01  1.343602734E+04
2.456864340E+01  1.343837793E+04
2.458918824E+01  1.345580762E+04
2.460973307E+01  1.348236523E+04
2.463027791E+01  1.353190332E+04
2.465082275E+01  1.359060840E+04
2.467136759E+01  1.358889062E+04
2.469191243E+01  1.356228027E+04
2.471245726E+01  1.356320703E+04
2.473300210E+01  1.358111914E+04
2.475354694E+01  1.362881152E+04
2.477409178E+01  1.369821387E+04
2.479463662E+01  1.380032715E+04
2.481518145E+01  1.393152734E+04
2.483572629E+01  1.406468457E+04
2.485627113E+01  1.417960645E+04
2.487681597E+01  1.423638281E+04
2.489736081E+01  1.423604785E+04
2.491790564E+01  1.418473145E+04
2.493845048E+01  1.410757422E+04
2.495899532E+01  1.399519727E+04
2.497954016E+01  1.389851074E+04
2.500008500E+01  1.380572363E+04
2.502062983E+01  1.371349609E+04
2.504117467E+01  1.363901562E+04
2.506171951E+01  1.358552539E+04
2.508226435E+01  1.355608594E+04
2.510280919E+01  1.353745605E+04
2.512335402E+01  1.352444824E+04
2.514389886E+01  1.352548438E+04
2.516444370E+01  1.352312598E+04
2.518498854E+01  1.352587793E+04
2.520553338E+01  1.352950879E+04
2.522607821E+01  1.354185645E+04
2.524662305E+01  1.355208301E+04
2.526716789E+01  1.356123926E+04
2.528771273E+01  1.358761621E+04
2.530825756E+01  1.363281445E+04
2.532880240E+01  1.369500293E+04
2.534934724E+01  1.375852832E+04
2.536989208E+01  1.381558008E+04
2.539043692E+01  1.384894336E+04
2.541098175E+01  1.385797559E+04
2.543152659E+01  1.385565039E+04
2.545207143E+01  1.384446680E+04
2.547261627E+01  1.382254199E+04
2.549316111E+01  1.379256641E+04
2.551370594E+01  1.375615332E+04
2.553425078E+01  1.371433496E+04
2.555479562E+01  1.368222070E+04
2.557534046E+01  1.366618945E+04
2.559588530E+01  1.366218555E+04
2.561643013E+01  1.366654590E+04
2.563697497E+01  1.369062891E+04
2.565751981E+01  1.373188770E+04
2.567806465E+01  1.377936328E+04
2.569860949E+01  1.382651172E+04
2.571915432E+01  1.388075098E+04
2.573969916E+01  1.393677637E+04
2.576024400E+01  1.399066504E+04
2.578078884E+01  1.404056445E+04
2.580133368E+01  1.405600684E+04
2.582187851E+01  1.406194434E+04
2.584242335E+01  1.406039062E+04
2.586296819E+01  1.406540918E+04
2.588351303E+01  1.408161914E+04
2.590405787E+01  1.411618848E+04
2.592460270E+01  1.420213574E+04
2.594514754E+01  1.437699707E+04
2.596569238E+01  1.465121973E+04
2.598623722E+01  1.502794238E+04
2.600678206E+01  1.551463965E+04
2.602732689E+01  1.603077246E+04
2.604787173E+01  1.643891602E+04
2.606841657E+01  1.661098242E+04
2.608896141E+01  1.648351367E+04
2.610950625E+01  1.609435742E+04
2.613005108E+01  1.560108496E+04
2.615059592E+01  1.508577246E+04
2.617114076E+01  1.464916211E+04
2.619168560E+01  1.432415332E+04
2.621223044E+01  1.409376074E+04
2.623277527E+01  1.393491016E+04
2.625332011E+01  1.383005371E+04
2.627386495E+01  1.376866602E+04
2.629440979E+01  1.372829297E+04
2.631495463E+01  1.369992969E+04
2.633549946E+01  1.368040234E+04
2.635604430E+01  1.366448926E+04
2.637658914E+01  1.366126465E+04
2.639713398E+01  1.366158691E+04
2.641767881E+01  1.365763281E+04
2.643822365E+01  1.365201562E+04
2.645876849E+01  1.365542871E+04
2.647931333E+01  1.366251465E+04
2.649985817E+01  1.366699805E+04
2.652040300E+01  1.367718457E+04
2.654094784E+01  1.370423926E+04
2.656149268E+01  1.372521094E+04
2.658203752E+01  1.375046875E+04
2.660258236E+01  1.377436621E+04
2.662312719E+01  1.378971289E+04
2.664367203E+01  1.378288379E+04
2.666421687E+01  1.378293359E+04
2.668476171E+01  1.381124121E+04
2.670530655E+01  1.387303418E+04
2.672585138E+01  1.395246484E+04
2.674639622E+01  1.404382227E+04
2.676694106E+01  1.415516504E+04
2.678748590E+01  1.426027832E+04
2.680803074E+01  1.434353711E+04
2.682857557E+01  1.436500977E+04
2.684912041E+01  1.432514062E+04
2.686966525E+01  1.423463770E+04
2.689021009E+01  1.413323047E+04
2.691075493E+01  1.403102539E+04
2.693129976E+01  1.394074023E+04
2.695184460E+01  1.386540332E+04
2.697238944E+01  1.380494629E+04
2.699293428E+01  1.375625977E+04
2.701347912E+01  1.371766699E+04
2.703402395E+01  1.368288184E+04
2.705456879E+01  1.366804492E+04
2.707511363E+01  1.366659668E+04
2.709565847E+01  1.367867188E+04
2.711620331E+01  1.369496387E+04
2.713674814E+01  1.372554395E+04
2.715729298E+01  1.377127637E+04
2.717783782E+01  1.385516504E+04
2.719838266E+01  1.397996875E+04
2.721892750E+01  1.410486035E+04
2.723947233E+01  1.419289258E+04
2.726001717E+01  1.420327148E+04
2.728056201E+01  1.419444141E+04
2.730110685E+01  1.416063867E+04
2.732165169E+01  1.411588965E+04
2.734219652E+01  1.407409668E+04
2.736274136E+01  1.404388965E+04
2.738328620E+01  1.402941895E+04
2.740383104E+01  1.403317578E+04
2.742437588E+01  1.403211719E+04
2.744492071E+01  1.400976953E+04
2.746546555E+01  1.399244336E+04
2.748601039E+01  1.396492578E+04
2.750655523E+01  1.394880078E+04
2.752710007E+01  1.393542383E+04
2.754764490E+01  1.393333594E+04
2.756818974E+01  1.394928320E+04
2.758873458E+01  1.396647949E+04
2.760927942E+01  1.397225977E+04
2.762982425E+01  1.397411914E+04
2.765036909E+01  1.397520215E+04
2.767091393E+01  1.400572559E+04
2.769145877E+01  1.405842188E+04
2.771200361E+01  1.415503613E+04
2.773254844E+01  1.430660156E+04
2.775309328E+01  1.455029395E+04
2.777363812E+01  1.490279590E+04
2.779418296E+01  1.533836523E+04
2.781472780E+01  1.571032617E+04
2.783527263E+01  1.581112012E+04
2.785581747E+01  1.546896680E+04
2.787636231E+01  1.491185840E+04
2.789690715E+01  1.438796387E+04
2.791745199E+01  1.410455957E+04
2.793799682E+01  1.401106543E+04
2.795854166E+01  1.399186035E+04
2.797908650E+01  1.400544922E+04
2.799963134E+01  1.405373535E+04
2.802017618E+01  1.412721973E+04
2.804072101E+01  1.419960352E+04
2.806126585E+01  1.426958203E+04
2.808181069E+01  1.430794922E+04
2.810235553E+01  1.432071582E+04
2.812290037E+01  1.432073730E+04
2.814344520E+01  1.427454883E+04
2.816399004E+01  1.419084473E+04
2.818453488E+01  1.411419238E+04
2.820507972E+01  1.405367480E+04
2.822562456E+01  1.403964355E+04
2.824616939E+01  1.403455664E+04
2.826671423E+01  1.403857324E+04
2.828725907E+01  1.404528418E+04
2.830780391E+01  1.406300098E+04
2.832834875E+01  1.408957617E+04
2.834889358E+01  1.413366016E+04
2.836943842E+01  1.421745020E+04
2.838998326E+01  1.428572363E+04
2.841052810E+01  1.430005469E+04
2.843107294E+01  1.425266699E+04
2.845161777E+01  1.418081641E+04
2.847216261E+01  1.413267285E+04
2.849270745E+01  1.414995508E+04
2.851325229E+01  1.422250977E+04
2.853379713E+01  1.434436816E+04
2.855434196E+01  1.449240820E+04
2.857488680E+01  1.464737109E+04
2.859543164E+01  1.476978516E+04
2.861597648E+01  1.484586621E+04
2.863652132E+01  1.486008496E+04
2.865706615E+01  1.480484277E+04
2.867761099E+01  1.471019531E+04
2.869815583E+01  1.459620117E+04
2.871870067E+01  1.449428809E+04
2.873924550E+01  1.439907715E+04
2.875979034E+01  1.431954785E+04
2.878033518E+01  1.422999902E+04
2.880088002E+01  1.416659180E+04
2.882142486E+01  1.411863477E+04
2.884196969E+01  1.408376270E+04
2.886251453E+01  1.406146875E+04
2.888305937E+01  1.404636426E+04
2.890360421E+01  1.402751172E+04
2.892414905E+01  1.402126562E+04
2.894469388E+01  1.400682227E+04
2.896523872E+01  1.399361523E+04
2.898578356E+01  1.397562012E+04
2.900632840E+01  1.397138867E+04
2.902687324E+01  1.394877344E+04
2.904741807E+01  1.392566992E+04
2.906796291E+01  1.391765625E+04
2.908850775E+01  1.391929785E+04
2.910905259E+01  1.392156445E+04
2.912959743E+01  1.393095508E+04
2.915014226E+01  1.392745605E+04
2.917068710E+01  1.391590918E+04
2.919123194E+01  1.391013672E+04
2.921177678E+01  1.392002148E+04
2.923232162E+01  1.393944727E+04
2.925286645E+01  1.395859961E+04
2.927341129E+01  1.398358301E+04
2.929395613E+01  1.400695801E+04
2.931450097E+01  1.403632031E+04
2.933504581E+01  1.407214062E+04
2.935559064E+01  1.410652148E+04
2.937613548E+01  1.413136914E+04
2.939668032E+01  1.416656445E+04
2.941722516E+01  1.421464941E+04
2.943777000E+01  1.426540039E+04
2.945831483E+01  1.429749707E+04
2.947885967E+01  1.431898145E+04
2.949940451E+01  1.433945898E+04
2.951994935E+01  1.435667676E+04
2.954049419E+01  1.433371191E+04
2.956103902E+01  1.428473926E+04
2.958158386E+01  1.421283496E+04
2.960212870E+01  1.415367480E+04
2.962267354E+01  1.410137695E+04
2.964321838E+01  1.405283105E+04
2.966376321E+01  1.401514453E+04
2.968430805E+01  1.397920801E+04
2.970485289E+01  1.394414355E+04
2.972539773E+01  1.391772461E+04
2.974594257E+01  1.389776074E+04
2.976648740E+01  1.388376562E+04
2.978703224E+01  1.388327637E+04
2.980757708E+01  1.388775098E+04
2.982812192E+01  1.388711133E+04
2.984866676E+01  1.388385254E+04
2.986921159E+01  1.387026074E+04
2.988975643E+01  1.385886914E+04
2.991030127E+01  1.384438281E+04
2.993084611E+01  1.382531836E+04
2.995139094E+01  1.381532129E+04
2.997193578E+01  1.380055078E+04
2.999248062E+01  1.378135645E+04
3.001302546E+01  1.375362891E+04
3.003357030E+01  1.373995312E+04
3.005411513E+01  1.373215820E+04
3.007465997E+01  1.373063184E+04
3.009520481E+01  1.373321973E+04
3.011574965E+01  1.375673926E+04
3.013629449E+01  1.380155664E+04
3.015683932E+01  1.385395801E+04
3.017738416E+01  1.389157129E+04
3.019792900E+01  1.392773047E+04
3.021847384E+01  1.397156445E+04
3.023901868E+01  1.402454688E+04
3.025956351E+01  1.408206543E+04
3.028010835E+01  1.414826953E+04
3.030065319E+01  1.421605176E+04
3.032119803E+01  1.429409570E+04
3.034174287E+01  1.437186426E+04
3.036228770E+01  1.443320605E+04
3.038283254E+01  1.445438477E+04
3.040337738E+01  1.440166309E+04
3.042392222E+01  1.425829980E+04
3.044446706E+01  1.407897656E+04
3.046501189E+01  1.393638086E+04
3.048555673E+01  1.382147461E+04
3.050610157E+01  1.374105469E+04
3.052664641E+01  1.369348242E+04
3.054719125E+01  1.367632812E+04
3.056773608E+01  1.364410254E+04
3.058828092E+01  1.361505176E+04
3.060882576E+01  1.361079590E+04
3.062937060E+01  1.361501367E+04
3.064991544E+01  1.362797656E+04
3.067046027E+01  1.362591211E+04
3.069100511E+01  1.360510742E+04
3.071154995E+01  1.360134961E+04
3.073209479E+01  1.360598633E+04
3.075263963E+01  1.360168359E+04
3.077318446E+01  1.359394531E+04
3.079372930E+01  1.359890723E+04
3.081427414E+01  1.360811426E+04
3.083481898E+01  1.360352148E+04
3.085536382E+01  1.359528906E+04
3.087590865E+01  1.360551562E+04
3.089645349E+01  1.364193262E+04
3.091699833E+01  1.365705762E+04
3.093754317E+01  1.367472070E+04
3.095808801E+01  1.366278320E+04
3.097863284E+01  1.365154980E+04
3.099917768E+01  1.362924512E+04
3.101972252E+01  1.361402246E+04
3.104026736E+01  1.358679004E+04
3.106081219E+01  1.356383887E+04
3.108135703E+01  1.355635449E+04
3.110190187E+01  1.355151465E+04
3.112244671E+01  1.354913965E+04
3.114299155E+01  1.354766797E+04
3.116353638E+01  1.354648926E+04
3.118408122E+01  1.354240820E+04
3.120462606E+01  1.354185547E+04
3.122517090E+01  1.354687891E+04
3.124571574E+01  1.355927930E+04
3.126626057E+01  1.357198535E+04
3.128680541E+01  1.356807422E+04
3.130735025E+01  1.356171484E+04
3.132789509E+01  1.357814160E+04
3.134843993E+01  1.357920703E+04
3.136898476E+01  1.357418066E+04
3.138952960E+01  1.358000586E+04
3.141007444E+01  1.359630078E+04
3.143061928E+01  1.362395801E+04
3.145116412E+01  1.363131445E+04
3.147170895E+01  1.363699707E+04
3.149225379E+01  1.367627246E+04
3.151279863E+01  1.374575781E+04
3.153334347E+01  1.383182617E+04
3.155388831E+01  1.398929297E+04
3.157443314E+01  1.437070117E+04
3.159497798E+01  1.485888965E+04
3.161552282E+01  1.536304590E+04
3.163606766E+01  1.580428711E+04
3.165661250E+01  1.597695996E+04
3.167715733E+01  1.586041602E+04
3.169770217E+01  1.569486035E+04
3.171824701E+01  1.546242871E+04
3.173879185E+01  1.514934766E+04
3.175933669E+01  1.475474902E+04
3.177988152E+01  1.444481055E+04
3.180042636E+01  1.420075781E+04
3.182097120E+01  1.403297656E+04
3.184151604E+01  1.392659375E+04
3.186206088E+01  1.387767480E+04
3.188260571E+01  1.384526855E+04
3.190315055E+01  1.386422070E+04
3.192369539E+01  1.395946289E+04
3.194424023E+01  1.405292480E+04
3.196478507E+01  1.414338770E+04
3.198532990E+01  1.421498535E+04
3.200587474E+01  1.431093945E+04
3.202641958E+01  1.444293359E+04
3.204696442E+01  1.464000781E+04
3.206750926E+01  1.479008691E+04
3.208805409E+01  1.492688574E+04
3.210859893E+01  1.514653027E+04
3.212914377E+01  1.531433105E+04
3.214968861E+01  1.547119727E+04
3.217023344E+01  1.574465039E+04
3.219077828E+01  1.640291992E+04
3.221132312E+01  1.677023242E+04
3.223186796E+01  1.668734570E+04
3.225241280E+01  1.577520508E+04
3.227295763E+01  1.473155859E+04
